# Pulseq sequence file
# Created by PyPulseq

[VERSION]
major 1
minor 5
revision 0

[DEFINITIONS]
AdcRasterTime 1e-07 
BlockDurationRaster 1e-05 
FOV 0.22 0.22 0.005 
Flipangle 10 
GradientRasterTime 1e-05 
Name gre 
RadiofrequencyRasterTime 1e-06 
TE 0.02188 
TR 0.02402 
TotalDuration 242.11951 
k_space_encoding1 64 
name grpe 
number_of_readouts 64 
sampling_scheme cartesian 
slices 1 

# Format of blocks:
# NUM DUR RF  GX  GY  GZ  ADC  EXT
[BLOCKS]
    1  12   0   0   0   0  0  1
    2   5   0   0   0   0  0  0
    3   0   0   0   0   0  0  2
    4 110   0   0   0   0  0  3
    5  10   0   0   0   0  0  0
    6 120   0   0   0   0  0  4
    7  10   0   0   0   0  0  0
    8 130   0   0   0   0  0  5
    9 120   0   0   0   0  0  0
   10   1   0   0   0   0  0  6
   11  99   0   0   0   0  0  0
   12 100000   0   0   0   0  0  7
   13 100000   0   0   0   0  0  0
   14   1   0   0   0   0  0  8
   15   1   0   0   0   0  0  9
   16   1   0   0   0   0  0 10
   17 4997   0   0   0   0  0  0
   18 158   1   0   0   1  0  0
   19 1000   0   2   0   0  0  0
   20 1000   0   3   0   0  0  0
   21  66   0   4   5   6  0  0
   22  86   0   7   0   0  1  0
   23  90   0   8   9  10  0  0
   24   1   0   0   0   0  0  6
   25   1   0   0   0   0  0 11
   26 2598   0   0   0   0  0  0
   27 158   2   0   0   1  0  0
   28 1000   0   2   0   0  0  0
   29 1000   0   3   0   0  0  0
   30  66   0   4  11   6  0  0
   31  86   0   7   0   0  2  0
   32  90   0   8  12  10  0  0
   33   1   0   0   0   0  0  6
   34   1   0   0   0   0  0 12
   35 2598   0   0   0   0  0  0
   36 158   3   0   0   1  0  0
   37 1000   0   2   0   0  0  0
   38 1000   0   3   0   0  0  0
   39  66   0   4  13   6  0  0
   40  86   0   7   0   0  3  0
   41  90   0   8  14  10  0  0
   42   1   0   0   0   0  0  6
   43   1   0   0   0   0  0 13
   44 2598   0   0   0   0  0  0
   45 158   4   0   0   1  0  0
   46 1000   0   2   0   0  0  0
   47 1000   0   3   0   0  0  0
   48  66   0   4  15   6  0  0
   49  86   0   7   0   0  4  0
   50  90   0   8  16  10  0  0
   51   1   0   0   0   0  0  6
   52   1   0   0   0   0  0 14
   53 2598   0   0   0   0  0  0
   54 158   5   0   0   1  0  0
   55 1000   0   2   0   0  0  0
   56 1000   0   3   0   0  0  0
   57  66   0   4  17   6  0  0
   58  86   0   7   0   0  5  0
   59  90   0   8  18  10  0  0
   60   1   0   0   0   0  0  6
   61   1   0   0   0   0  0 15
   62 2598   0   0   0   0  0  0
   63 158   6   0   0   1  0  0
   64 1000   0   2   0   0  0  0
   65 1000   0   3   0   0  0  0
   66  66   0   4  19   6  0  0
   67  86   0   7   0   0  6  0
   68  90   0   8  20  10  0  0
   69   1   0   0   0   0  0  6
   70   1   0   0   0   0  0 16
   71 2598   0   0   0   0  0  0
   72 158   7   0   0   1  0  0
   73 1000   0   2   0   0  0  0
   74 1000   0   3   0   0  0  0
   75  66   0   4  21   6  0  0
   76  86   0   7   0   0  7  0
   77  90   0   8  22  10  0  0
   78   1   0   0   0   0  0  6
   79   1   0   0   0   0  0 17
   80 2598   0   0   0   0  0  0
   81 158   8   0   0   1  0  0
   82 1000   0   2   0   0  0  0
   83 1000   0   3   0   0  0  0
   84  66   0   4  23   6  0  0
   85  86   0   7   0   0  8  0
   86  90   0   8  24  10  0  0
   87   1   0   0   0   0  0  6
   88   1   0   0   0   0  0 18
   89 2598   0   0   0   0  0  0
   90 158   9   0   0   1  0  0
   91 1000   0   2   0   0  0  0
   92 1000   0   3   0   0  0  0
   93  66   0   4  25   6  0  0
   94  86   0   7   0   0  9  0
   95  90   0   8  26  10  0  0
   96   1   0   0   0   0  0  6
   97   1   0   0   0   0  0 19
   98 2598   0   0   0   0  0  0
   99 158  10   0   0   1  0  0
  100 1000   0   2   0   0  0  0
  101 1000   0   3   0   0  0  0
  102  66   0   4  27   6  0  0
  103  86   0   7   0   0 10  0
  104  90   0   8  28  10  0  0
  105   1   0   0   0   0  0  6
  106   1   0   0   0   0  0 20
  107 2598   0   0   0   0  0  0
  108 158   6   0   0   1  0  0
  109 1000   0   2   0   0  0  0
  110 1000   0   3   0   0  0  0
  111  66   0   4  29   6  0  0
  112  86   0   7   0   0  6  0
  113  90   0   8  30  10  0  0
  114   1   0   0   0   0  0  6
  115   1   0   0   0   0  0 21
  116 2598   0   0   0   0  0  0
  117 158  11   0   0   1  0  0
  118 1000   0   2   0   0  0  0
  119 1000   0   3   0   0  0  0
  120  66   0   4  31   6  0  0
  121  86   0   7   0   0 11  0
  122  90   0   8  32  10  0  0
  123   1   0   0   0   0  0  6
  124   1   0   0   0   0  0 22
  125 2598   0   0   0   0  0  0
  126 158  12   0   0   1  0  0
  127 1000   0   2   0   0  0  0
  128 1000   0   3   0   0  0  0
  129  66   0   4  33   6  0  0
  130  86   0   7   0   0 12  0
  131  90   0   8  34  10  0  0
  132   1   0   0   0   0  0  6
  133   1   0   0   0   0  0 23
  134 2598   0   0   0   0  0  0
  135 158  13   0   0   1  0  0
  136 1000   0   2   0   0  0  0
  137 1000   0   3   0   0  0  0
  138  66   0   4  35   6  0  0
  139  86   0   7   0   0 13  0
  140  90   0   8  36  10  0  0
  141   1   0   0   0   0  0  6
  142   1   0   0   0   0  0 24
  143 2598   0   0   0   0  0  0
  144 158  14   0   0   1  0  0
  145 1000   0   2   0   0  0  0
  146 1000   0   3   0   0  0  0
  147  66   0   4  37   6  0  0
  148  86   0   7   0   0 14  0
  149  90   0   8  38  10  0  0
  150   1   0   0   0   0  0  6
  151   1   0   0   0   0  0 25
  152 2598   0   0   0   0  0  0
  153 158   1   0   0   1  0  0
  154 1000   0   2   0   0  0  0
  155 1000   0   3   0   0  0  0
  156  66   0   4  39   6  0  0
  157  86   0   7   0   0  1  0
  158  90   0   8  40  10  0  0
  159   1   0   0   0   0  0  6
  160   1   0   0   0   0  0 26
  161 2598   0   0   0   0  0  0
  162 158  15   0   0   1  0  0
  163 1000   0   2   0   0  0  0
  164 1000   0   3   0   0  0  0
  165  66   0   4  41   6  0  0
  166  86   0   7   0   0 15  0
  167  90   0   8  42  10  0  0
  168   1   0   0   0   0  0  6
  169   1   0   0   0   0  0 27
  170 2598   0   0   0   0  0  0
  171 158  16   0   0   1  0  0
  172 1000   0   2   0   0  0  0
  173 1000   0   3   0   0  0  0
  174  66   0   4  43   6  0  0
  175  86   0   7   0   0 16  0
  176  90   0   8  44  10  0  0
  177   1   0   0   0   0  0  6
  178   1   0   0   0   0  0 28
  179 2598   0   0   0   0  0  0
  180 158  13   0   0   1  0  0
  181 1000   0   2   0   0  0  0
  182 1000   0   3   0   0  0  0
  183  66   0   4  45   6  0  0
  184  86   0   7   0   0 13  0
  185  90   0   8  46  10  0  0
  186   1   0   0   0   0  0  6
  187   1   0   0   0   0  0 29
  188 2598   0   0   0   0  0  0
  189 158  17   0   0   1  0  0
  190 1000   0   2   0   0  0  0
  191 1000   0   3   0   0  0  0
  192  66   0   4  47   6  0  0
  193  86   0   7   0   0 17  0
  194  90   0   8  48  10  0  0
  195   1   0   0   0   0  0  6
  196   1   0   0   0   0  0 30
  197 2598   0   0   0   0  0  0
  198 158   5   0   0   1  0  0
  199 1000   0   2   0   0  0  0
  200 1000   0   3   0   0  0  0
  201  66   0   4  49   6  0  0
  202  86   0   7   0   0  5  0
  203  90   0   8  50  10  0  0
  204   1   0   0   0   0  0  6
  205   1   0   0   0   0  0 31
  206 2598   0   0   0   0  0  0
  207 158  18   0   0   1  0  0
  208 1000   0   2   0   0  0  0
  209 1000   0   3   0   0  0  0
  210  66   0   4  51   6  0  0
  211  86   0   7   0   0 18  0
  212  90   0   8  52  10  0  0
  213   1   0   0   0   0  0  6
  214   1   0   0   0   0  0 32
  215 2598   0   0   0   0  0  0
  216 158  19   0   0   1  0  0
  217 1000   0   2   0   0  0  0
  218 1000   0   3   0   0  0  0
  219  66   0   4  53   6  0  0
  220  86   0   7   0   0 19  0
  221  90   0   8  54  10  0  0
  222   1   0   0   0   0  0  6
  223   1   0   0   0   0  0 33
  224 2598   0   0   0   0  0  0
  225 158   9   0   0   1  0  0
  226 1000   0   2   0   0  0  0
  227 1000   0   3   0   0  0  0
  228  66   0   4  55   6  0  0
  229  86   0   7   0   0  9  0
  230  90   0   8  56  10  0  0
  231   1   0   0   0   0  0  6
  232   1   0   0   0   0  0 34
  233 2598   0   0   0   0  0  0
  234 158  20   0   0   1  0  0
  235 1000   0   2   0   0  0  0
  236 1000   0   3   0   0  0  0
  237  66   0   4  57   6  0  0
  238  86   0   7   0   0 20  0
  239  90   0   8  58  10  0  0
  240   1   0   0   0   0  0  6
  241   1   0   0   0   0  0 35
  242 2598   0   0   0   0  0  0
  243 158  10   0   0   1  0  0
  244 1000   0   2   0   0  0  0
  245 1000   0   3   0   0  0  0
  246  66   0   4  59   6  0  0
  247  86   0   7   0   0 10  0
  248  90   0   8  60  10  0  0
  249   1   0   0   0   0  0  6
  250   1   0   0   0   0  0 36
  251 2598   0   0   0   0  0  0
  252 158  18   0   0   1  0  0
  253 1000   0   2   0   0  0  0
  254 1000   0   3   0   0  0  0
  255  66   0   4  61   6  0  0
  256  86   0   7   0   0 18  0
  257  90   0   8  62  10  0  0
  258   1   0   0   0   0  0  6
  259   1   0   0   0   0  0 37
  260 2598   0   0   0   0  0  0
  261 158  21   0   0   1  0  0
  262 1000   0   2   0   0  0  0
  263 1000   0   3   0   0  0  0
  264  66   0   4  63   6  0  0
  265  86   0   7   0   0 21  0
  266  90   0   8  64  10  0  0
  267   1   0   0   0   0  0  6
  268   1   0   0   0   0  0 38
  269 2598   0   0   0   0  0  0
  270 158   4   0   0   1  0  0
  271 1000   0   2   0   0  0  0
  272 1000   0   3   0   0  0  0
  273  66   0   4  65   6  0  0
  274  86   0   7   0   0  4  0
  275  90   0   8  66  10  0  0
  276   1   0   0   0   0  0  6
  277   1   0   0   0   0  0 39
  278 2598   0   0   0   0  0  0
  279 158  22   0   0   1  0  0
  280 1000   0   2   0   0  0  0
  281 1000   0   3   0   0  0  0
  282  66   0   4  67   6  0  0
  283  86   0   7   0   0 22  0
  284  90   0   8  68  10  0  0
  285   1   0   0   0   0  0  6
  286   1   0   0   0   0  0 40
  287 2598   0   0   0   0  0  0
  288 158  14   0   0   1  0  0
  289 1000   0   2   0   0  0  0
  290 1000   0   3   0   0  0  0
  291  66   0   4  69   6  0  0
  292  86   0   7   0   0 14  0
  293  90   0   8  70  10  0  0
  294   1   0   0   0   0  0  6
  295   1   0   0   0   0  0 41
[RF]
1      87.2306 1 2 0 640 150 0 0 0 0 e
2      87.2306 1 2 0 640 150 0 0 0 2.04204 e
3      87.2306 1 2 0 640 150 0 0 0 6.12611 e
4      87.2306 1 2 0 640 150 0 0 0 5.96903 e
5      87.2306 1 2 0 640 150 0 0 0 1.5708 e
6      87.2306 1 2 0 640 150 0 0 0 5.49779 e
7      87.2306 1 2 0 640 150 0 0 0 5.18363 e
8      87.2306 1 2 0 640 150 0 0 0 0.628319 e
9      87.2306 1 2 0 640 150 0 0 0 4.39823 e
10      87.2306 1 2 0 640 150 0 0 0 3.92699 e
11      87.2306 1 2 0 640 150 0 0 0 2.82743 e
12      87.2306 1 2 0 640 150 0 0 0 2.19911 e
13      87.2306 1 2 0 640 150 0 0 0 3.61283 e
14      87.2306 1 2 0 640 150 0 0 0 0.785398 e
15      87.2306 1 2 0 640 150 0 0 0 1.25664 e
16      87.2306 1 2 0 640 150 0 0 0 4.55531 e
17      87.2306 1 2 0 640 150 0 0 0 4.71239 e
18      87.2306 1 2 0 640 150 0 0 0 0.471239 e
19      87.2306 1 2 0 640 150 0 0 0 1.41372 e
20      87.2306 1 2 0 640 150 0 0 0 3.14159 e
21      87.2306 1 2 0 640 150 0 0 0 5.34071 e
22      87.2306 1 2 0 640 150 0 0 0 2.35619 e
23      87.2306 1 2 0 640 150 0 0 0 3.76991 e
24      87.2306 1 2 0 640 150 0 0 0 2.98451 e

# Format of trapezoid gradients:
# id amplitude rise flat fall delay
# ..      Hz/m   us   us   us    us
[TRAP]
 1       625000 150 1280 150   0
 2       723792 170 9660 170   0
 3      -723792 170 9660 170   0
 4      -822511 210    0 210   0
 5      -765550 190    0 190   0
 6 -1.35417e+06 330    0 330   0
 7       454545 110  640 110   0
 8  1.41907e+06 340   70 340   0
 9       765550 190    0 190   0
10  1.42857e+06 340  220 340   0
11      -741627 190    0 190   0
12       741627 190    0 190   0
13      -681818 180   20 180   0
14       681818 180   20 180   0
15      -659091 180   20 180   0
16       659091 180   20 180   0
17      -636364 180   20 180   0
18       636364 180   20 180   0
19      -584416 170   40 170   0
20       584416 170   40 170   0
21      -562771 170   40 170   0
22       562771 170   40 170   0
23      -541126 170   40 170   0
24       541126 170   40 170   0
25      -519481 170   40 170   0
26       519481 170   40 170   0
27      -475207 160   60 160   0
28       475207 160   60 160   0
29      -454545 160   60 160   0
30       454545 160   60 160   0
31      -415020 150   80 150   0
32       415020 150   80 150   0
33      -395257 150   80 150   0
34       395257 150   80 150   0
35      -375494 150   80 150   0
36       375494 150   80 150   0
37      -340909 140  100 140   0
38       340909 140  100 140   0
39      -321970 140  100 140   0
40       321970 140  100 140   0
41      -303030 140  100 140   0
42       303030 140  100 140   0
43      -272727 130  120 130   0
44       272727 130  120 130   0
45      -254545 130  120 130   0
46       254545 130  120 130   0
47      -227273 120  140 120   0
48       227273 120  140 120   0
49      -209790 120  140 120   0
50       209790 120  140 120   0
51      -185185 110  160 110   0
52       185185 110  160 110   0
53      -168350 110  160 110   0
54       168350 110  160 110   0
55      -146104 100  180 100   0
56       146104 100  180 100   0
57      -129870 100  180 100   0
58       129870 100  180 100   0
59      -109718  90  200  90   0
60       109718  90  200  90   0
61     -94043.9  90  200  90   0
62      94043.9  90  200  90   0
63     -75757.6  80  220  80   0
64      75757.6  80  220  80   0
65       -58651  70  240  70   0
66        58651  70  240  70   0
67     -42613.6  60  260  60   0
68      42613.6  60  260  60   0
69     -27548.2  50  280  50   0
70      27548.2  50  280  50   0
71       -13369  40  300  40   0
72        13369  40  300  40   0
73            0  10  360  10   0

# Format of ADC events:
# id num dwell delay freqPPM phasePPM freq phase phase_id
# ..  ..    ns    us     ppm  rad/MHz   Hz   rad       ..
[ADC]
1 64 10000 110 0 0 0 0 0
2 64 10000 110 0 0 0 2.04204 0
3 64 10000 110 0 0 0 6.12611 0
4 64 10000 110 0 0 0 5.96903 0
5 64 10000 110 0 0 0 1.5708 0
6 64 10000 110 0 0 0 5.49779 0
7 64 10000 110 0 0 0 5.18363 0
8 64 10000 110 0 0 0 0.628319 0
9 64 10000 110 0 0 0 4.39823 0
10 64 10000 110 0 0 0 3.92699 0
11 64 10000 110 0 0 0 2.82743 0
12 64 10000 110 0 0 0 2.19911 0
13 64 10000 110 0 0 0 3.61283 0
14 64 10000 110 0 0 0 0.785398 0
15 64 10000 110 0 0 0 1.25664 0
16 64 10000 110 0 0 0 4.55531 0
17 64 10000 110 0 0 0 4.71239 0
18 64 10000 110 0 0 0 0.471239 0
19 64 10000 110 0 0 0 1.41372 0
20 64 10000 110 0 0 0 3.14159 0
21 64 10000 110 0 0 0 5.34071 0
22 64 10000 110 0 0 0 2.35619 0
23 64 10000 110 0 0 0 3.76991 0
24 64 10000 110 0 0 0 2.98451 0

# Format of extension lists:
# id type ref next_id
# next_id of 0 terminates the list
# Extension list is followed by extension specifications
[EXTENSIONS]
1 1 1 0
2 2 1 0
3 1 2 0
4 1 3 0
5 1 4 0
6 1 5 0
7 1 6 0
8 2 2 0
9 2 3 0
10 2 4 0
11 2 5 0
12 2 6 0
13 2 7 0
14 2 8 0
15 2 9 0
16 2 10 0
17 2 11 0
18 2 12 0
19 2 13 0
20 2 14 0
21 2 15 0
22 2 16 0
23 2 17 0
24 2 18 0
25 2 19 0
26 2 20 0
27 2 21 0
28 2 22 0
29 2 23 0
30 2 24 0
31 2 25 0
32 2 26 0
33 2 27 0
34 2 28 0
35 2 29 0
36 2 30 0
37 2 31 0
38 2 32 0
39 2 33 0
40 2 34 0
41 2 35 0
42 2 36 0
43 2 37 0
44 2 38 0
45 2 39 0
46 2 40 0
47 2 41 0
48 2 42 0
49 2 43 0
50 2 44 0
51 2 45 0
52 2 46 0
53 2 47 0
54 2 48 0
55 2 49 0
56 2 50 0
57 2 51 0
58 2 52 0
59 2 53 0
60 2 54 0
61 2 55 0
62 2 56 0
63 2 57 0
64 2 58 0
65 2 59 0
66 2 60 0
67 2 61 0
68 2 62 0
69 2 63 0
70 2 64 0
71 2 65 0
72 2 66 0
73 2 67 0
74 2 68 0
75 2 69 0
76 2 70 0
77 2 71 0
78 2 72 0
79 2 73 0
80 2 74 0
81 2 75 0
82 2 76 0
83 1 7 0
84 2 77 0
85 2 78 0
86 2 79 0

# Extension specification for digital output and input triggers:
# id type channel delay (us) duration (us)
extension TRIGGERS 1
1 1 3 0 120
2 1 3 0 1100
3 1 3 0 1200
4 1 3 0 1300
5 1 3 0 10
6 1 3 0 1000000
7 1 3 0 1000

# Extension specification for setting labels:
# id set labelstring
extension LABELSET 2
1 0 REP
2 0 SET
3 0 PHS
4 0 LIN
5 1 LIN
6 2 LIN
7 3 LIN
8 4 LIN
9 5 LIN
10 6 LIN
11 7 LIN
12 8 LIN
13 9 LIN
14 10 LIN
15 11 LIN
16 12 LIN
17 13 LIN
18 14 LIN
19 15 LIN
20 16 LIN
21 17 LIN
22 18 LIN
23 19 LIN
24 20 LIN
25 21 LIN
26 22 LIN
27 23 LIN
28 24 LIN
29 25 LIN
30 26 LIN
31 27 LIN
32 28 LIN
33 29 LIN
34 30 LIN
35 31 LIN
36 32 LIN
37 33 LIN
38 34 LIN
39 35 LIN
40 36 LIN
41 37 LIN
42 38 LIN
43 39 LIN
44 40 LIN
45 41 LIN
46 42 LIN
47 43 LIN
48 44 LIN
49 45 LIN
50 46 LIN
51 47 LIN
52 48 LIN
53 49 LIN
54 50 LIN
55 51 LIN
56 52 LIN
57 53 LIN
58 54 LIN
59 55 LIN
60 56 LIN
61 57 LIN
62 58 LIN
63 59 LIN
64 60 LIN
65 61 LIN
66 62 LIN
67 63 LIN
68 1 PHS
69 2 PHS
70 3 PHS
71 4 PHS
72 5 PHS
73 6 PHS
74 7 PHS
75 1 SET
76 2 SET
77 1 REP
78 2 REP
79 3 REP

# Sequence Shapes
[SHAPES]

shape_id 1
num_samples 1280
0.00012509888
0.000375896116
0.000627515309
0.000879983771
0.00113332895
0.00138757842
0.00164275985
0.00189890101
0.00215602975
0.00241417398
0.00267336166
0.00293362078
0.00319497937
0.00345746544
0.003721107
0.00398593206
0.00425196855
0.00451924437
0.00478778736
0.00505762525
0.00532878568
0.00560129619
0.00587518418
0.0061504769
0.00642720143
0.00670538469
0.00698505341
0.00726623409
0.00754895302
0.00783323626
0.00811910959
0.00840659855
0.00869572835
0.00898652393
0.00927900991
0.00957321056
0.0098691498
0.0101668512
0.0104663379
0.0107676327
0.011070758
0.0113757356
0.0116825872
0.0119913336
0.0123019954
0.0126145927
0.012929145
0.0132456713
0.0135641901
0.0138847192
0.014207276
0.0145318773
0.0148585392
0.0151872771
0.015518106
0.01585104
0.0161860928
0.0165232772
0.0168626053
0.0172040887
0.017547738
0.0178935632
0.0182415736
0.0185917776
0.0189441828
0.0192987961
0.0196556236
0.0200146704
0.0203759408
0.0207394385
0.0211051659
0.0214731248
0.021843316
0.0222157395
0.0225903941
0.0229672778
0.0233463878
0.0237277202
0.0241112699
0.0244970312
0.024884997
0.0252751595
0.0256675096
0.0260620374
0.0264587318
0.0268575805
0.0272585703
0.0276616869
0.0280669147
0.0284742373
0.0288836369
0.0292950945
0.0297085903
0.030124103
0.0305416102
0.0309610885
0.031382513
0.0318058578
0.0322310957
0.0326581983
0.0330871361
0.0335178781
0.0339503922
0.0343846451
0.034820602
0.0352582271
0.035697483
0.0361383314
0.0365807323
0.0370246447
0.0374700262
0.0379168329
0.0383650197
0.0388145404
0.039265347
0.0397173905
0.0401706205
0.0406249851
0.0410804311
0.041536904
0.0419943479
0.0424527055
0.0429119182
0.0433719259
0.0438326671
0.0442940791
0.0447560976
0.045218657
0.0456816904
0.0461451294
0.0466089041
0.0470729433
0.0475371746
0.0480015238
0.0484659156
0.0489302732
0.0493945183
0.0498585715
0.0503223517
0.0507857764
0.051248762
0.0517112231
0.0521730732
0.0526342244
0.0530945873
0.053554071
0.0540125836
0.0544700314
0.0549263195
0.0553813518
0.0558350305
0.0562872567
0.0567379301
0.0571869489
0.05763421
0.0580796092
0.0585230407
0.0589643974
0.059403571
0.0598404517
0.0602749287
0.0607068897
0.061136221
0.0615628078
0.0619865341
0.0624072824
0.0628249341
0.0632393694
0.0636504671
0.0640581049
0.0644621592
0.0648625054
0.0652590175
0.0656515684
0.0660400299
0.0664242725
0.0668041656
0.0671795776
0.0675503758
0.0679164261
0.0682775936
0.0686337422
0.0689847349
0.0693304335
0.0696706988
0.0700053906
0.0703343677
0.0706574879
0.0709746081
0.0712855843
0.0715902713
0.0718885234
0.0721801935
0.0724651342
0.0727431966
0.0730142316
0.0732780888
0.0735346172
0.0737836649
0.0740250794
0.0742587074
0.0744843947
0.0747019866
0.0749113277
0.0751122617
0.075304632
0.0754882811
0.075663051
0.0758287832
0.0759853184
0.0761324971
0.0762701589
0.0763981433
0.0765162891
0.0766244346
0.0767224178
0.0768100763
0.0768872473
0.0769537676
0.0770094738
0.077054202
0.0770877881
0.0771100679
0.0771208768
0.0771200499
0.0771074225
0.0770828293
0.0770461051
0.0769970847
0.0769356026
0.0768614933
0.0767745914
0.0766747314
0.0765617478
0.0764354753
0.0762957486
0.0761424023
0.0759752716
0.0757941914
0.0755989971
0.0753895242
0.0751656085
0.0749270859
0.0746737928
0.074405566
0.0741222423
0.0738236593
0.0735096548
0.0731800671
0.0728347349
0.0724734974
0.0720961946
0.0717026666
0.0712927545
0.0708662998
0.0704231447
0.0699631321
0.0694861056
0.0689919094
0.0684803888
0.0679513895
0.0674047582
0.0668403425
0.0662579909
0.0656575526
0.0650388779
0.0644018182
0.0637462256
0.0630719533
0.0623788559
0.0616667885
0.0609356079
0.0601851716
0.0594153386
0.0586259688
0.0578169235
0.0569880654
0.0561392582
0.0552703671
0.0543812586
0.0534718006
0.0525418624
0.0515913147
0.0506200296
0.049627881
0.0486147439
0.0475804951
0.046525013
0.0454481775
0.0443498702
0.0432299742
0.0420883745
0.0409249578
0.0397396123
0.0385322284
0.0373026978
0.0360509145
0.0347767739
0.0334801737
0.0321610132
0.0308191938
0.0294546188
0.0280671935
0.0266568252
0.0252234232
0.023766899
0.022287166
0.0207841398
0.0192577382
0.017707881
0.0161344905
0.0145374908
0.0129168085
0.0112723724
0.00960411357
0.00791196543
0.00619586366
0.00445574634
0.00269155389
0.000903229171
0.000909282581
0.00274603367
0.00460707393
0.00649245073
0.00840220893
0.0103363909
0.0122950363
0.0142781825
0.0162858641
0.0183181131
0.0203749589
0.0224564283
0.0245625455
0.0266933318
0.0288488059
0.031028984
0.0332338793
0.0354635023
0.0377178609
0.03999696
0.0423008018
0.0446293858
0.0469827085
0.0493607635
0.0517635419
0.0541910316
0.0566432178
0.0591200825
0.0616216053
0.0641477623
0.0666985273
0.0692738705
0.0718737597
0.0744981593
0.077147031
0.0798203335
0.0825180223
0.0852400501
0.0879863665
0.0907569181
0.0935516484
0.096370498
0.0992134042
0.102080302
0.104971121
0.107885792
0.110824238
0.113786383
0.116772145
0.11978144
0.122814181
0.125870277
0.128949636
0.132052162
0.135177753
0.138326309
0.141497723
0.144691887
0.147908687
0.151148011
0.154409739
0.157693749
0.160999919
0.16432812
0.167678222
0.171050091
0.174443591
0.177858582
0.18129492
0.18475246
0.188231053
0.191730547
0.195250787
0.198791614
0.202352868
0.205934383
0.209535993
0.213157528
0.216798813
0.220459673
0.224139928
0.227839397
0.231557893
0.235295228
0.239051212
0.242825649
0.246618344
0.250429096
0.254257702
0.258103956
0.26196765
0.265848572
0.269746508
0.273661241
0.27759255
0.281540214
0.285504006
0.289483698
0.29347906
0.297489857
0.301515853
0.305556809
0.309612483
0.313682631
0.317767005
0.321865357
0.325977433
0.330102979
0.334241738
0.33839345
0.342557852
0.34673468
0.350923667
0.355124542
0.359337034
0.363560869
0.367795769
0.372041456
0.376297649
0.380564063
0.384840413
0.389126411
0.393421766
0.397726187
0.402039378
0.406361043
0.410690884
0.4150286
0.419373888
0.423726444
0.42808596
0.432452129
0.436824639
0.44120318
0.445587436
0.449977092
0.45437183
0.458771331
0.463175274
0.467583337
0.471995194
0.476410521
0.48082899
0.485250272
0.489674036
0.494099952
0.498527685
0.502956901
0.507387265
0.511818439
0.516250084
0.520681861
0.52511343
0.529544447
0.533974571
0.538403457
0.542830759
0.547256132
0.551679228
0.5560997
0.560517198
0.564931373
0.569341875
0.573748351
0.57815045
0.582547819
0.586940106
0.591326955
0.595708013
0.600082925
0.604451335
0.608812887
0.613167225
0.617513994
0.621852834
0.626183391
0.630505305
0.634818221
0.639121779
0.643415623
0.647699394
0.651972734
0.656235287
0.660486694
0.664726597
0.66895464
0.673170464
0.677373714
0.681564032
0.685741061
0.689904448
0.694053834
0.698188866
0.702309189
0.706414449
0.710504293
0.714578367
0.71863632
0.7226778
0.726702457
0.730709941
0.734699903
0.738671995
0.742625869
0.746561181
0.750477583
0.754374734
0.758252289
0.762109907
0.765947247
0.76976397
0.773559737
0.777334213
0.781087062
0.784817949
0.788526542
0.79221251
0.795875524
0.799515256
0.803131378
0.806723568
0.8102915
0.813834855
0.817353313
0.820846556
0.824314268
0.827756135
0.831171845
0.834561089
0.837923558
0.841258946
0.844566949
0.847847266
0.851099597
0.854323645
0.857519114
0.860685712
0.863823148
0.866931134
0.870009384
0.873057614
0.876075545
0.879062897
0.882019394
0.884944764
0.887838736
0.890701041
0.893531414
0.896329592
0.899095316
0.901828329
0.904528376
0.907195205
0.909828569
0.912428221
0.914993918
0.917525421
0.920022493
0.9224849
0.924912412
0.927304801
0.929661842
0.931983314
0.934268999
0.936518683
0.938732152
0.940909199
0.943049619
0.94515321
0.947219773
0.949249113
0.951241039
0.953195362
0.955111898
0.956990464
0.958830883
0.960632981
0.962396587
0.964121533
0.965807656
0.967454795
0.969062795
0.970631502
0.972160767
0.973650444
0.975100393
0.976510475
0.977880554
0.979210502
0.980500191
0.981749498
0.982958304
0.984126494
0.985253955
0.986340581
0.987386268
0.988390915
0.989354426
0.99027671
0.991157679
0.991997247
0.992795335
0.993551866
0.994266767
0.994939971
0.995571413
0.996161032
0.996708772
0.997214581
0.997678409
0.998100213
0.998479952
0.998817589
0.999113092
0.999366434
0.999577589
0.999746537
0.999873262
0.999957753
1
1
0.999957753
0.999873262
0.999746537
0.999577589
0.999366434
0.999113092
0.998817589
0.998479952
0.998100213
0.997678409
0.997214581
0.996708772
0.996161032
0.995571413
0.994939971
0.994266767
0.993551866
0.992795335
0.991997247
0.991157679
0.99027671
0.989354426
0.988390915
0.987386268
0.986340581
0.985253955
0.984126494
0.982958304
0.981749498
0.980500191
0.979210502
0.977880554
0.976510475
0.975100393
0.973650444
0.972160767
0.970631502
0.969062795
0.967454795
0.965807656
0.964121533
0.962396587
0.960632981
0.958830883
0.956990464
0.955111898
0.953195362
0.951241039
0.949249113
0.947219773
0.94515321
0.943049619
0.940909199
0.938732152
0.936518683
0.934268999
0.931983314
0.929661842
0.927304801
0.924912412
0.9224849
0.920022493
0.917525421
0.914993918
0.912428221
0.909828569
0.907195205
0.904528376
0.901828329
0.899095316
0.896329592
0.893531414
0.890701041
0.887838736
0.884944764
0.882019394
0.879062897
0.876075545
0.873057614
0.870009384
0.866931134
0.863823148
0.860685712
0.857519114
0.854323645
0.851099597
0.847847266
0.844566949
0.841258946
0.837923558
0.834561089
0.831171845
0.827756135
0.824314268
0.820846556
0.817353313
0.813834855
0.8102915
0.806723568
0.803131378
0.799515256
0.795875524
0.79221251
0.788526542
0.784817949
0.781087062
0.777334213
0.773559737
0.76976397
0.765947247
0.762109907
0.758252289
0.754374734
0.750477583
0.746561181
0.742625869
0.738671995
0.734699903
0.730709941
0.726702457
0.7226778
0.71863632
0.714578367
0.710504293
0.706414449
0.702309189
0.698188866
0.694053834
0.689904448
0.685741061
0.681564032
0.677373714
0.673170464
0.66895464
0.664726597
0.660486694
0.656235287
0.651972734
0.647699394
0.643415623
0.639121779
0.634818221
0.630505305
0.626183391
0.621852834
0.617513994
0.613167225
0.608812887
0.604451335
0.600082925
0.595708013
0.591326955
0.586940106
0.582547819
0.57815045
0.573748351
0.569341875
0.564931373
0.560517198
0.5560997
0.551679228
0.547256132
0.542830759
0.538403457
0.533974571
0.529544447
0.52511343
0.520681861
0.516250084
0.511818439
0.507387265
0.502956901
0.498527685
0.494099952
0.489674036
0.485250272
0.48082899
0.476410521
0.471995194
0.467583337
0.463175274
0.458771331
0.45437183
0.449977092
0.445587436
0.44120318
0.436824639
0.432452129
0.42808596
0.423726444
0.419373888
0.4150286
0.410690884
0.406361043
0.402039378
0.397726187
0.393421766
0.389126411
0.384840413
0.380564063
0.376297649
0.372041456
0.367795769
0.363560869
0.359337034
0.355124542
0.350923667
0.34673468
0.342557852
0.33839345
0.334241738
0.330102979
0.325977433
0.321865357
0.317767005
0.313682631
0.309612483
0.305556809
0.301515853
0.297489857
0.29347906
0.289483698
0.285504006
0.281540214
0.27759255
0.273661241
0.269746508
0.265848572
0.26196765
0.258103956
0.254257702
0.250429096
0.246618344
0.242825649
0.239051212
0.235295228
0.231557893
0.227839397
0.224139928
0.220459673
0.216798813
0.213157528
0.209535993
0.205934383
0.202352868
0.198791614
0.195250787
0.191730547
0.188231053
0.18475246
0.18129492
0.177858582
0.174443591
0.171050091
0.167678222
0.16432812
0.160999919
0.157693749
0.154409739
0.151148011
0.147908687
0.144691887
0.141497723
0.138326309
0.135177753
0.132052162
0.128949636
0.125870277
0.122814181
0.11978144
0.116772145
0.113786383
0.110824238
0.107885792
0.104971121
0.102080302
0.0992134042
0.096370498
0.0935516484
0.0907569181
0.0879863665
0.0852400501
0.0825180223
0.0798203335
0.077147031
0.0744981593
0.0718737597
0.0692738705
0.0666985273
0.0641477623
0.0616216053
0.0591200825
0.0566432178
0.0541910316
0.0517635419
0.0493607635
0.0469827085
0.0446293858
0.0423008018
0.03999696
0.0377178609
0.0354635023
0.0332338793
0.031028984
0.0288488059
0.0266933318
0.0245625455
0.0224564283
0.0203749589
0.0183181131
0.0162858641
0.0142781825
0.0122950363
0.0103363909
0.00840220893
0.00649245073
0.00460707393
0.00274603367
0.000909282581
0.000903229171
0.00269155389
0.00445574634
0.00619586366
0.00791196543
0.00960411357
0.0112723724
0.0129168085
0.0145374908
0.0161344905
0.017707881
0.0192577382
0.0207841398
0.022287166
0.023766899
0.0252234232
0.0266568252
0.0280671935
0.0294546188
0.0308191938
0.0321610132
0.0334801737
0.0347767739
0.0360509145
0.0373026978
0.0385322284
0.0397396123
0.0409249578
0.0420883745
0.0432299742
0.0443498702
0.0454481775
0.046525013
0.0475804951
0.0486147439
0.049627881
0.0506200296
0.0515913147
0.0525418624
0.0534718006
0.0543812586
0.0552703671
0.0561392582
0.0569880654
0.0578169235
0.0586259688
0.0594153386
0.0601851716
0.0609356079
0.0616667885
0.0623788559
0.0630719533
0.0637462256
0.0644018182
0.0650388779
0.0656575526
0.0662579909
0.0668403425
0.0674047582
0.0679513895
0.0684803888
0.0689919094
0.0694861056
0.0699631321
0.0704231447
0.0708662998
0.0712927545
0.0717026666
0.0720961946
0.0724734974
0.0728347349
0.0731800671
0.0735096548
0.0738236593
0.0741222423
0.074405566
0.0746737928
0.0749270859
0.0751656085
0.0753895242
0.0755989971
0.0757941914
0.0759752716
0.0761424023
0.0762957486
0.0764354753
0.0765617478
0.0766747314
0.0767745914
0.0768614933
0.0769356026
0.0769970847
0.0770461051
0.0770828293
0.0771074225
0.0771200499
0.0771208768
0.0771100679
0.0770877881
0.077054202
0.0770094738
0.0769537676
0.0768872473
0.0768100763
0.0767224178
0.0766244346
0.0765162891
0.0763981433
0.0762701589
0.0761324971
0.0759853184
0.0758287832
0.075663051
0.0754882811
0.075304632
0.0751122617
