# Pulseq sequence file
# Created by PyPulseq

[VERSION]
major 1
minor 5
revision 0

[DEFINITIONS]
3D 1 
AdcRasterTime 1e-07 
BlockDurationRaster 1e-05 
FOV 0.256 0.256 0.256 
GradientRasterTime 1e-05 
Name UTE_v1.2.1 
RadiofrequencyRasterTime 1e-06 
SGPoints 0 
TR 5 
TotalDuration 0.5 
adc_dead_time 1e-05 
alpha 0 
dwell 1e-05 
matrix 128 128 128 
max_grad 1192128 
max_slew 7.66368e+09 
nDummy 100 
nProj 10000 
nSample 79 
nSegment 1 
reord_traj standard 
rf_dead_time 0.0001 
rf_len 5e-05 
rf_ringdown_time 2e-05 
rf_spoiling_inc 117 
rise_time 0.0003 
ro_os 1 
ro_spoil 3 
version_sequence v1.2.1 

# Format of blocks:
# NUM DUR RF  GX  GY  GZ  ADC  EXT
[BLOCKS]
  1  17   1   0   0   0  0  0
  2 177   0   1   2   3  1  0
  3 306   0   0   0   0  0  0
  4  17   2   0   0   0  0  0
  5 177   0   4   5   6  2  0
  6 306   0   0   0   0  0  0
  7  17   3   0   0   0  0  0
  8 177   0   7   8   9  3  0
  9 306   0   0   0   0  0  0
 10  17   4   0   0   0  0  0
 11 177   0  10  11  12  4  0
 12 306   0   0   0   0  0  0
 13  17   5   0   0   0  0  0
 14 177   0  13  14  15  5  0
 15 306   0   0   0   0  0  0
 16  17   6   0   0   0  0  0
 17 177   0  16  17  18  6  0
 18 306   0   0   0   0  0  0
 19  17   7   0   0   0  0  0
 20 177   0  19  20  21  7  0
 21 306   0   0   0   0  0  0
 22  17   8   0   0   0  0  0
 23 177   0  22  23  24  8  0
 24 306   0   0   0   0  0  0
 25  17   9   0   0   0  0  0
 26 177   0  25  26  27  9  0
 27 306   0   0   0   0  0  0
 28  17  10   0   0   0  0  0
 29 177   0  28  29  30 10  0
 30 306   0   0   0   0  0  0
 31  17   6   0   0   0  0  0
 32 177   0  31  32  33  6  0
 33 306   0   0   0   0  0  0
 34  17  11   0   0   0  0  0
 35 177   0  34  35  36 11  0
 36 306   0   0   0   0  0  0
 37  17  12   0   0   0  0  0
 38 177   0  37  38  39 12  0
 39 306   0   0   0   0  0  0
 40  17  13   0   0   0  0  0
 41 177   0  40  41  42 13  0
 42 306   0   0   0   0  0  0
 43  17  14   0   0   0  0  0
 44 177   0  43  44  45 14  0
 45 306   0   0   0   0  0  0
 46  17   1   0   0   0  0  0
 47 177   0  46  47  48  1  0
 48 306   0   0   0   0  0  0
 49  17  15   0   0   0  0  0
 50 177   0  49  50  51 15  0
 51 306   0   0   0   0  0  0
 52  17  16   0   0   0  0  0
 53 177   0  52  53  54 16  0
 54 306   0   0   0   0  0  0
 55  17  13   0   0   0  0  0
 56 177   0  55  56  57 13  0
 57 306   0   0   0   0  0  0
 58  17  17   0   0   0  0  0
 59 177   0  58  59  60 17  0
 60 306   0   0   0   0  0  0
 61  17   5   0   0   0  0  0
 62 177   0  61  62  63  5  0
 63 306   0   0   0   0  0  0
 64  17  18   0   0   0  0  0
 65 177   0  64  65  66 18  0
 66 306   0   0   0   0  0  0
 67  17  19   0   0   0  0  0
 68 177   0  67  68  69 19  0
 69 306   0   0   0   0  0  0
 70  17   9   0   0   0  0  0
 71 177   0  70  71  72  9  0
 72 306   0   0   0   0  0  0
 73  17  20   0   0   0  0  0
 74 177   0  73  74  75 20  0
 75 306   0   0   0   0  0  0
 76  17  10   0   0   0  0  0
 77 177   0  76  77  78 10  0
 78 306   0   0   0   0  0  0
 79  17  18   0   0   0  0  0
 80 177   0  79  80  81 18  0
 81 306   0   0   0   0  0  0
 82  17  21   0   0   0  0  0
 83 177   0  82  83  84 21  0
 84 306   0   0   0   0  0  0
 85  17   4   0   0   0  0  0
 86 177   0  85  86  87  4  0
 87 306   0   0   0   0  0  0
 88  17  22   0   0   0  0  0
 89 177   0  88  89  90 22  0
 90 306   0   0   0   0  0  0
 91  17  14   0   0   0  0  0
 92 177   0  91  92  93 14  0
 93 306   0   0   0   0  0  0
 94  17  15   0   0   0  0  0
 95 177   0  94  95  96 15  0
 96 306   0   0   0   0  0  0
 97  17  23   0   0   0  0  0
 98 177   0  97  98  99 23  0
 99 306   0   0   0   0  0  0
100  17   2   0   0   0  0  0
101 177   0 100 101 102  2  0
102 306   0   0   0   0  0  0
103  17  22   0   0   0  0  0
104 177   0 103 104 105 22  0
105 306   0   0   0   0  0  0
106  17  17   0   0   0  0  0
107 177   0 106 107 108 17  0
108 306   0   0   0   0  0  0
109  17  11   0   0   0  0  0
110 177   0 109 110 111 11  0
111 306   0   0   0   0  0  0
112  17  24   0   0   0  0  0
113 177   0 112 113 114 24  0
114 306   0   0   0   0  0  0
115  17   7   0   0   0  0  0
116 177   0 115 116 117  7  0
117 306   0   0   0   0  0  0
118  17  20   0   0   0  0  0
119 177   0 118 119 120 20  0
120 306   0   0   0   0  0  0
121  17  20   0   0   0  0  0
122 177   0 121 122 123 20  0
123 306   0   0   0   0  0  0
124  17   7   0   0   0  0  0
125 177   0 124 125 126  7  0
126 306   0   0   0   0  0  0
127  17  24   0   0   0  0  0
128 177   0 127 128 129 24  0
129 306   0   0   0   0  0  0
130  17  11   0   0   0  0  0
131 177   0 130 131 132 11  0
132 306   0   0   0   0  0  0
133  17  17   0   0   0  0  0
134 177   0 133 134 135 17  0
135 306   0   0   0   0  0  0
136  17  22   0   0   0  0  0
137 177   0 136 137 138 22  0
138 306   0   0   0   0  0  0
139  17   2   0   0   0  0  0
140 177   0 139 140 141  2  0
141 306   0   0   0   0  0  0
142  17  23   0   0   0  0  0
143 177   0 142 143 144 23  0
144 306   0   0   0   0  0  0
145  17  15   0   0   0  0  0
146 177   0 145 146 147 15  0
147 306   0   0   0   0  0  0
148  17  14   0   0   0  0  0
149 177   0 148 149 150 14  0
150 306   0   0   0   0  0  0
151  17  22   0   0   0  0  0
152 177   0 151 152 153 22  0
153 306   0   0   0   0  0  0
154  17   4   0   0   0  0  0
155 177   0 154 155 156  4  0
156 306   0   0   0   0  0  0
157  17  21   0   0   0  0  0
158 177   0 157 158 159 21  0
159 306   0   0   0   0  0  0
160  17  18   0   0   0  0  0
161 177   0 160 161 162 18  0
162 306   0   0   0   0  0  0
163  17  10   0   0   0  0  0
164 177   0 163 164 165 10  0
165 306   0   0   0   0  0  0
166  17  20   0   0   0  0  0
167 177   0 166 167 168 20  0
168 306   0   0   0   0  0  0
169  17   9   0   0   0  0  0
170 177   0 169 170 171  9  0
171 306   0   0   0   0  0  0
172  17  19   0   0   0  0  0
173 177   0 172 173 174 19  0
174 306   0   0   0   0  0  0
175  17  18   0   0   0  0  0
176 177   0 175 176 177 18  0
177 306   0   0   0   0  0  0
178  17   5   0   0   0  0  0
179 177   0 178 179 180  5  0
180 306   0   0   0   0  0  0
181  17  17   0   0   0  0  0
182 177   0 181 182 183 17  0
183 306   0   0   0   0  0  0
184  17  13   0   0   0  0  0
185 177   0 184 185 186 13  0
186 306   0   0   0   0  0  0
187  17  16   0   0   0  0  0
188 177   0 187 188 189 16  0
189 306   0   0   0   0  0  0
190  17  15   0   0   0  0  0
191 177   0 190 191 192 15  0
192 306   0   0   0   0  0  0
193  17   1   0   0   0  0  0
194 177   0 193 194 195  1  0
195 306   0   0   0   0  0  0
196  17  14   0   0   0  0  0
197 177   0 196 197 198 14  0
198 306   0   0   0   0  0  0
199  17  13   0   0   0  0  0
200 177   0 199 200 201 13  0
201 306   0   0   0   0  0  0
202  17  12   0   0   0  0  0
203 177   0 202 203 204 12  0
204 306   0   0   0   0  0  0
205  17  11   0   0   0  0  0
206 177   0 205 206 207 11  0
207 306   0   0   0   0  0  0
208  17   6   0   0   0  0  0
209 177   0 208 209 210  6  0
210 306   0   0   0   0  0  0
211  17  10   0   0   0  0  0
212 177   0 211 212 213 10  0
213 306   0   0   0   0  0  0
214  17   9   0   0   0  0  0
215 177   0 214 215 216  9  0
216 306   0   0   0   0  0  0
217  17   8   0   0   0  0  0
218 177   0 217 218 219  8  0
219 306   0   0   0   0  0  0
220  17   7   0   0   0  0  0
221 177   0 220 221 222  7  0
222 306   0   0   0   0  0  0
223  17   6   0   0   0  0  0
224 177   0 223 224 225  6  0
225 306   0   0   0   0  0  0
226  17   5   0   0   0  0  0
227 177   0 226 227 228  5  0
228 306   0   0   0   0  0  0
229  17   4   0   0   0  0  0
230 177   0 229 230 231  4  0
231 306   0   0   0   0  0  0
232  17   3   0   0   0  0  0
233 177   0 232 233 234  3  0
234 306   0   0   0   0  0  0
235  17   2   0   0   0  0  0
236 177   0 235 236 237  2  0
237 306   0   0   0   0  0  0
238  17   1   0   0   0  0  0
239 177   0 238 239 240  1  0
240 306   0   0   0   0  0  0
241  17   1   0   0   0  0  0
242 177   0 241 242 243  1  0
243 306   0   0   0   0  0  0
244  17   2   0   0   0  0  0
245 177   0 244 245 246  2  0
246 306   0   0   0   0  0  0
247  17   3   0   0   0  0  0
248 177   0 247 248 249  3  0
249 306   0   0   0   0  0  0
250  17   4   0   0   0  0  0
251 177   0 250 251 252  4  0
252 306   0   0   0   0  0  0
253  17   5   0   0   0  0  0
254 177   0 253 254 255  5  0
255 306   0   0   0   0  0  0
256  17   6   0   0   0  0  0
257 177   0 256 257 258  6  0
258 306   0   0   0   0  0  0
259  17   7   0   0   0  0  0
260 177   0 259 260 261  7  0
261 306   0   0   0   0  0  0
262  17   8   0   0   0  0  0
263 177   0 262 263 264  8  0
264 306   0   0   0   0  0  0
265  17   9   0   0   0  0  0
266 177   0 265 266 267  9  0
267 306   0   0   0   0  0  0
268  17  10   0   0   0  0  0
269 177   0 268 269 270 10  0
270 306   0   0   0   0  0  0
271  17   6   0   0   0  0  0
272 177   0 271 272 273  6  0
273 306   0   0   0   0  0  0
274  17  11   0   0   0  0  0
275 177   0 274 275 276 11  0
276 306   0   0   0   0  0  0
277  17  12   0   0   0  0  0
278 177   0 277 278 279 12  0
279 306   0   0   0   0  0  0
280  17  13   0   0   0  0  0
281 177   0 280 281 282 13  0
282 306   0   0   0   0  0  0
283  17  14   0   0   0  0  0
284 177   0 283 284 285 14  0
285 306   0   0   0   0  0  0
286  17   1   0   0   0  0  0
287 177   0 286 287 288  1  0
288 306   0   0   0   0  0  0
289  17  15   0   0   0  0  0
290 177   0 289 290 291 15  0
291 306   0   0   0   0  0  0
292  17  16   0   0   0  0  0
293 177   0 292 293 294 16  0
294 306   0   0   0   0  0  0
295  17  13   0   0   0  0  0
296 177   0 295 296 297 13  0
297 306   0   0   0   0  0  0
298  17  17   0   0   0  0  0
299 177   0 298 299 300 17  0
300 306   0   0   0   0  0  0

# Format of RF events:
# id ampl. mag_id phase_id time_shape_id center delay freqPPm phasePPM freq phase use
# ..   Hz      ..       ..            ..     us    us     ppm  rad/MHz   Hz   rad  ..
# Field "use" is the initial of: excitation refocusing inversion saturation preparation other undefined
[RF]
1      555.556 1 2 3 25 100 0 0 0 0 u
2      555.556 1 2 3 25 100 0 0 0 2.04204 u
3      555.556 1 2 3 25 100 0 0 0 6.12611 u
4      555.556 1 2 3 25 100 0 0 0 5.96903 u
5      555.556 1 2 3 25 100 0 0 0 1.5708 u
6      555.556 1 2 3 25 100 0 0 0 5.49779 u
7      555.556 1 2 3 25 100 0 0 0 5.18363 u
8      555.556 1 2 3 25 100 0 0 0 0.628319 u
9      555.556 1 2 3 25 100 0 0 0 4.39823 u
10      555.556 1 2 3 25 100 0 0 0 3.92699 u
11      555.556 1 2 3 25 100 0 0 0 2.82743 u
12      555.556 1 2 3 25 100 0 0 0 2.19911 u
13      555.556 1 2 3 25 100 0 0 0 3.61283 u
14      555.556 1 2 3 25 100 0 0 0 0.785398 u
15      555.556 1 2 3 25 100 0 0 0 1.25664 u
16      555.556 1 2 3 25 100 0 0 0 4.55531 u
17      555.556 1 2 3 25 100 0 0 0 4.71239 u
18      555.556 1 2 3 25 100 0 0 0 0.471239 u
19      555.556 1 2 3 25 100 0 0 0 1.41372 u
20      555.556 1 2 3 25 100 0 0 0 3.14159 u
21      555.556 1 2 3 25 100 0 0 0 5.34071 u
22      555.556 1 2 3 25 100 0 0 0 2.35619 u
23      555.556 1 2 3 25 100 0 0 0 3.76991 u
24      555.556 1 2 3 25 100 0 0 0 2.98451 u

# Format of arbitrary gradients:
#   time_shape_id of 0 means default timing (stepping with grad_raster starting at 1/2 of grad_raster)
# id amplitude first last amp_shape_id time_shape_id delay
# ..      Hz/m  Hz/m Hz/m        ..         ..          us
[GRADIENTS]
1       697336     -3874.09     -21791.8 4 0 0
2      90282.8     -501.571     -2821.34 4 0 0
3      -937477       5208.2      29296.1 4 0 0
4       690978     -3838.77     -21593.1 4 0 0
5       131974     -733.188     -4124.18 4 0 0
6      -937242       5206.9      29288.8 4 0 0
7       682134     -3789.63     -21316.7 4 0 0
8       173209     -962.271     -5412.78 4 0 0
9      -937008       5205.6      29281.5 4 0 0
10       670835     -3726.86     -20963.6 4 0 0
11       213840        -1188      -6682.5 4 0 0
12      -936773       5204.3      29274.2 4 0 0
13       657123     -3650.68     -20535.1 4 0 0
14       253722     -1409.57     -7928.81 4 0 0
15      -936539      5202.99      29266.8 4 0 0
16       641050     -3561.39     -20032.8 4 0 0
17       292712     -1626.18     -9147.24 4 0 0
18      -936305      5201.69      29259.5 4 0 0
19       622672     -3459.29     -19458.5 4 0 0
20       330670     -1837.06     -10333.4 4 0 0
21      -936070      5200.39      29252.2 4 0 0
22       602058     -3344.77     -18814.3 4 0 0
23       367462     -2041.45     -11483.2 4 0 0
24      -935836      5199.09      29244.9 4 0 0
25       579282     -3218.23     -18102.6 4 0 0
26       402956     -2238.64     -12592.4 4 0 0
27      -935601      5197.79      29237.5 4 0 0
28       554426     -3080.15     -17325.8 4 0 0
29       437025     -2427.92       -13657 4 0 0
30      -935367      5196.48      29230.2 4 0 0
31       527580        -2931     -16486.9 4 0 0
32       469550     -2608.61     -14673.4 4 0 0
33      -935133      5195.18      29222.9 4 0 0
34       498840     -2771.34     -15588.8 4 0 0
35       500414     -2780.08       -15638 4 0 0
36      -934898      5193.88      29215.6 4 0 0
37       468311     -2601.73     -14634.7 4 0 0
38       529509     -2941.72     -16547.2 4 0 0
39      -934664      5192.58      29208.2 4 0 0
40       436100     -2422.78     -13628.1 4 0 0
41       556731     -3092.95     -17397.9 4 0 0
42      -934429      5191.27      29200.9 4 0 0
43       402324     -2235.13     -12572.6 4 0 0
44       581985     -3233.25       -18187 4 0 0
45      -934195      5189.97      29193.6 4 0 0
46       367103     -2039.46       -11472 4 0 0
47       605181     -3362.12     -18911.9 4 0 0
48      -933961      5188.67      29186.3 4 0 0
49       330563     -1836.46     -10330.1 4 0 0
50       626238      -3479.1       -19570 4 0 0
51      -933726      5187.37      29178.9 4 0 0
52       292834     -1626.86     -9151.07 4 0 0
53       645083      -3583.8     -20158.8 4 0 0
54      -933492      5186.07      29171.6 4 0 0
55       254051     -1411.39     -7939.09 4 0 0
56       661649     -3675.83     -20676.5 4 0 0
57      -933257      5184.76      29164.3 4 0 0
58       214351     -1190.84     -6698.47 4 0 0
59       675879     -3754.88     -21121.2 4 0 0
60      -933023      5183.46        29157 4 0 0
61       173875     -965.973      -5433.6 4 0 0
62       687724     -3820.69     -21491.4 4 0 0
63      -932789      5182.16      29149.6 4 0 0
64       132767     -737.594     -4148.97 4 0 0
65       697142     -3873.01     -21785.7 4 0 0
66      -932554      5180.86      29142.3 4 0 0
67      91171.8      -506.51     -2849.12 4 0 0
68       704101     -3911.67     -22003.2 4 0 0
69      -932320      5179.55        29135 4 0 0
70      49236.9     -273.538     -1538.65 4 0 0
71       708579     -3936.55     -22143.1 4 0 0
72      -932085      5178.25      29127.7 4 0 0
73      7110.11     -39.5006     -222.191 4 0 0
74       710559     -3947.55       -22205 4 0 0
75      -931851      5176.95      29120.3 4 0 0
76       -35060      194.778      1095.62 4 0 0
77       710037     -3944.65     -22188.7 4 0 0
78      -931617      5175.65        29113 4 0 0
79     -77124.9      428.472      2410.15 4 0 0
80       707015     -3927.86     -22094.2 4 0 0
81      -931382      5174.35      29105.7 4 0 0
82      -118937       660.76      3716.77 4 0 0
83       701505     -3897.25       -21922 4 0 0
84      -931148      5173.04      29098.4 4 0 0
85      -160349      890.826      5010.89 4 0 0
86       693527     -3852.93     -21672.7 4 0 0
87      -930913      5171.74        29091 4 0 0
88      -201215      1117.86      6287.98 4 0 0
89       683111     -3795.06     -21347.2 4 0 0
90      -930679      5170.44      29083.7 4 0 0
91      -241394      1341.08      7543.56 4 0 0
92       670293     -3723.85     -20946.7 4 0 0
93      -930445      5169.14      29076.4 4 0 0
94      -280743      1559.69      8773.23 4 0 0
95       655121     -3639.56     -20472.5 4 0 0
96      -930210      5167.83      29069.1 4 0 0
97      -319127      1772.93      9972.71 4 0 0
98       637647     -3542.49     -19926.5 4 0 0
99      -929976      5166.53      29061.7 4 0 0
100      -356410      1980.05      11137.8 4 0 0
101       617935     -3432.97     -19310.5 4 0 0
102      -929741      5165.23      29054.4 4 0 0
103      -392463      2180.35      12264.5 4 0 0
104       596054     -3311.41     -18626.7 4 0 0
105      -929507      5163.93      29047.1 4 0 0
106      -427160      2373.11      13348.8 4 0 0
107       572082     -3178.23     -17877.6 4 0 0
108      -929273      5162.63      29039.8 4 0 0
109      -460382      2557.68      14386.9 4 0 0
110       546102      -3033.9     -17065.7 4 0 0
111      -929038      5161.32      29032.4 4 0 0
112      -492012       2733.4      15375.4 4 0 0
113       518207     -2878.93       -16194 4 0 0
114      -928804      5160.02      29025.1 4 0 0
115      -521941      2899.67      16310.7 4 0 0
116       488495     -2713.86     -15265.5 4 0 0
117      -928569      5158.72      29017.8 4 0 0
118      -550067      3055.93      17189.6 4 0 0
119       457069     -2539.27     -14283.4 4 0 0
120      -928335      5157.42      29010.5 4 0 0
121      -576290      3201.61      18009.1 4 0 0
122       424040     -2355.78     -13251.2 4 0 0
123      -928101      5156.11      29003.1 4 0 0
124      -600522      3336.24      18766.3 4 0 0
125       389523     -2164.02     -12172.6 4 0 0
126      -927866      5154.81      28995.8 4 0 0
127      -622680      3459.33      19458.7 4 0 0
128       353639     -1964.66     -11051.2 4 0 0
129      -927632      5153.51      28988.5 4 0 0
130      -642686      3570.48      20083.9 4 0 0
131       316512      -1758.4     -9891.01 4 0 0
132      -927397      5152.21      28981.2 4 0 0
133      -660472      3669.29      20639.8 4 0 0
134       278273     -1545.96     -8696.03 4 0 0
135      -927163      5150.91      28973.8 4 0 0
136      -675979      3755.44      21124.3 4 0 0
137       239054     -1328.08     -7470.43 4 0 0
138      -926929       5149.6      28966.5 4 0 0
139      -689153      3828.63        21536 4 0 0
140       198991      -1105.5     -6218.45 4 0 0
141      -926694       5148.3      28959.2 4 0 0
142      -699949      3888.61      21873.4 4 0 0
143       158222     -879.013     -4944.45 4 0 0
144      -926460         5147      28951.9 4 0 0
145      -708332      3935.18      22135.4 4 0 0
146       116890      -649.39     -3652.82 4 0 0
147      -926225       5145.7      28944.5 4 0 0
148      -714273      3968.18        22321 4 0 0
149      75137.1     -417.428     -2348.03 4 0 0
150      -925991      5144.39      28937.2 4 0 0
151      -717753      3987.52      22429.8 4 0 0
152      33107.2     -183.929      -1034.6 4 0 0
153      -925757      5143.09      28929.9 4 0 0
154      -718761      3993.12      22461.3 4 0 0
155     -9054.37      50.3021      282.949 4 0 0
156      -925522      5141.79      28922.6 4 0 0
157      -717295      3984.97      22415.5 4 0 0
158     -51202.6      284.459      1600.08 4 0 0
159      -925288      5140.49      28915.2 4 0 0
160      -713360      3963.11      22292.5 4 0 0
161     -93192.3      517.735      2912.26 4 0 0
162      -925053      5139.19      28907.9 4 0 0
163      -706971      3927.62      22092.9 4 0 0
164      -134879      749.329      4214.98 4 0 0
165      -924819      5137.88      28900.6 4 0 0
166      -698152      3878.62      21817.2 4 0 0
167      -176121      978.447      5503.77 4 0 0
168      -924585      5136.58      28893.3 4 0 0
169      -686933      3816.29      21466.6 4 0 0
170      -216775       1204.3      6774.21 4 0 0
171      -924350      5135.28      28885.9 4 0 0
172      -673353      3740.85      21042.3 4 0 0
173      -256702      1426.12      8021.95 4 0 0
174      -924116      5133.98      28878.6 4 0 0
175      -657462      3652.56      20545.7 4 0 0
176      -295767      1643.15      9242.73 4 0 0
177      -923881      5132.67      28871.3 4 0 0
178      -639312      3551.74      19978.5 4 0 0
179      -333836      1854.65      10432.4 4 0 0
180      -923647      5131.37        28864 4 0 0
181      -618969      3438.72      19342.8 4 0 0
182      -370779      2059.88      11586.9 4 0 0
183      -923413      5130.07      28856.6 4 0 0
184      -596502       3313.9      18640.7 4 0 0
185      -406470      2258.17      12702.2 4 0 0
186      -923178      5128.77      28849.3 4 0 0
187      -571989      3177.72      17874.7 4 0 0
188      -440788      2448.82      13774.6 4 0 0
189      -922944      5127.47        28842 4 0 0
190      -545514      3030.63      17047.3 4 0 0
191      -473617       2631.2      14800.5 4 0 0
192      -922709      5126.16      28834.7 4 0 0
193      -517168      2873.16      16161.5 4 0 0
194      -504844      2804.69      15776.4 4 0 0
195      -922475      5124.86      28827.3 4 0 0
196      -487049      2705.83      15220.3 4 0 0
197      -534365       2968.7      16698.9 4 0 0
198      -922241      5123.56        28820 4 0 0
199      -455260      2529.22      14226.9 4 0 0
200      -562080      3122.67        17565 4 0 0
201      -922006      5122.26      28812.7 4 0 0
202      -421910      2343.94      13184.7 4 0 0
203      -587894      3266.08      18371.7 4 0 0
204      -921772      5120.95      28805.4 4 0 0
205      -387112      2150.62      12097.3 4 0 0
206      -611722      3398.46      19116.3 4 0 0
207      -921537      5119.65        28798 4 0 0
208      -350986      1949.92      10968.3 4 0 0
209      -633483      3519.35      19796.3 4 0 0
210      -921303      5118.35      28790.7 4 0 0
211      -313654      1742.52       9801.7 4 0 0
212      -653104      3628.35      20409.5 4 0 0
213      -921069      5117.05      28783.4 4 0 0
214      -275244      1529.13      8601.38 4 0 0
215      -670519      3725.11      20953.7 4 0 0
216      -920834      5115.75      28776.1 4 0 0
217      -235886      1310.48      7371.43 4 0 0
218      -685671      3809.28      21427.2 4 0 0
219      -920600      5114.44      28768.7 4 0 0
220      -195713       1087.3      6116.04 4 0 0
221      -698509       3880.6      21828.4 4 0 0
222      -920365      5113.14      28761.4 4 0 0
223      -154863      860.348      4839.46 4 0 0
224      -708990      3938.84      22155.9 4 0 0
225      -920131      5111.84      28754.1 4 0 0
226      -113472        630.4         3546 4 0 0
227      -717081      3983.78      22408.8 4 0 0
228      -919897      5110.54      28746.8 4 0 0
229     -71681.4       398.23      2240.04 4 0 0
230      -722755       4015.3      22586.1 4 0 0
231      -919662      5109.23      28739.4 4 0 0
232     -29631.9      164.622      925.996 4 0 0
233      -725993      4033.29      22687.3 4 0 0
234      -919428      5107.93      28732.1 4 0 0
235      12534.7     -69.6372     -391.709 4 0 0
236      -726786       4037.7        22712 4 0 0
237      -919193      5106.63      28724.8 4 0 0
238      54676.3     -303.757     -1708.63 4 0 0
239      -725132      4028.51      22660.4 4 0 0
240      -918959      5105.33      28717.5 4 0 0
241      96651.1     -536.951     -3020.35 4 0 0
242      -721037      4005.76      22532.4 4 0 0
243      -918725      5104.03      28710.1 4 0 0
244       138318     -768.434     -4322.44 4 0 0
245      -714517      3969.54      22328.7 4 0 0
246      -918490      5102.72      28702.8 4 0 0
247       179537      -997.43     -5610.55 4 0 0
248      -705594      3919.97      22049.8 4 0 0
249      -918256      5101.42      28695.5 4 0 0
250       220171     -1223.17     -6880.35 4 0 0
251      -694300      3857.22      21696.9 4 0 0
252      -918021      5100.12      28688.2 4 0 0
253       260083      -1444.9     -8127.59 4 0 0
254      -680672      3781.51        21271 4 0 0
255      -917787      5098.82      28680.8 4 0 0
256       299139     -1661.88      -9348.1 4 0 0
257      -664758       3693.1      20773.7 4 0 0
258      -917553      5097.51      28673.5 4 0 0
259       337210     -1873.39     -10537.8 4 0 0
260      -646612      3592.29      20206.6 4 0 0
261      -917318      5096.21      28666.2 4 0 0
262       374168     -2078.71     -11692.7 4 0 0
263      -626296      3479.42      19571.7 4 0 0
264      -917084      5094.91      28658.9 4 0 0
265       409890     -2277.17     -12809.1 4 0 0
266      -603878      3354.88      18871.2 4 0 0
267      -916849      5093.61      28651.5 4 0 0
268       444258      -2468.1     -13883.1 4 0 0
269      -579433      3219.07      18107.3 4 0 0
270      -916615      5092.31      28644.2 4 0 0
271       477157     -2650.87     -14911.1 4 0 0
272      -553045      3072.47      17282.7 4 0 0
273      -916381         5091      28636.9 4 0 0
274       508478     -2824.88     -15889.9 4 0 0
275      -524802      2915.57      16400.1 4 0 0
276      -916146       5089.7      28629.6 4 0 0
277       538117     -2989.54     -16816.2 4 0 0
278      -494800      2748.89      15462.5 4 0 0
279      -915912       5088.4      28622.2 4 0 0
280       565977     -3144.31     -17686.8 4 0 0
281      -463137      2572.98        14473 4 0 0
282      -915678       5087.1      28614.9 4 0 0
283       591965     -3288.69     -18498.9 4 0 0
284      -429922      2388.45      13435.1 4 0 0
285      -915443       5085.8      28607.6 4 0 0
286       615996      -3422.2     -19249.9 4 0 0
287      -395264      2195.91        12352 4 0 0
288      -915209      5084.49      28600.3 4 0 0
289       637990     -3544.39     -19937.2 4 0 0
290      -359279      1995.99      11227.5 4 0 0
291      -914974      5083.19      28592.9 4 0 0
292       657877     -3654.87     -20558.6 4 0 0
293      -322087      1789.37      10065.2 4 0 0
294      -914740      5081.89      28585.6 4 0 0
295       675589     -3753.27     -21112.2 4 0 0
296      -283813      1576.74      8869.15 4 0 0
297      -914506      5080.59      28578.3 4 0 0
298       691071     -3839.28       -21596 4 0 0
299      -244583      1358.79      7643.21 4 0 0
300      -914271      5079.28        28571 4 0 0

# Format of ADC events:
# id num dwell delay freqPPM phasePPM freq phase phase_id
# ..  ..    ns    us     ppm  rad/MHz   Hz   rad       ..
[ADC]
1 79 10000 10 0 0 0 0 0
2 79 10000 10 0 0 0 2.04204 0
3 79 10000 10 0 0 0 6.12611 0
4 79 10000 10 0 0 0 5.96903 0
5 79 10000 10 0 0 0 1.5708 0
6 79 10000 10 0 0 0 5.49779 0
7 79 10000 10 0 0 0 5.18363 0
8 79 10000 10 0 0 0 0.628319 0
9 79 10000 10 0 0 0 4.39823 0
10 79 10000 10 0 0 0 3.92699 0
11 79 10000 10 0 0 0 2.82743 0
12 79 10000 10 0 0 0 2.19911 0
13 79 10000 10 0 0 0 3.61283 0
14 79 10000 10 0 0 0 0.785398 0
15 79 10000 10 0 0 0 1.25664 0
16 79 10000 10 0 0 0 4.55531 0
17 79 10000 10 0 0 0 4.71239 0
18 79 10000 10 0 0 0 0.471239 0
19 79 10000 10 0 0 0 1.41372 0
20 79 10000 10 0 0 0 3.14159 0
21 79 10000 10 0 0 0 5.34071 0
22 79 10000 10 0 0 0 2.35619 0
23 79 10000 10 0 0 0 3.76991 0
24 79 10000 10 0 0 0 2.98451 0

# Sequence Shapes
[SHAPES]

shape_id 1
num_samples 2
1
1

shape_id 2
num_samples 2
0
0

shape_id 3
num_samples 2
0
50

shape_id 4
num_samples 177
0
0.0111111
0.0111111
2
0.0111112
0.0111111
0.0111111
6
0.0111112
0.0111111
0.0111111
6
0.0111112
0.0111111
0.0111111
5
0
0
47
0.0606061
0.0606061
0
0.060606
0.0606061
0.060606
0.0606061
0.0606061
0
0.060606
0.0606061
0.060606
0.0606061
0
0
68
-0.0625
-0.0625
14


[SIGNATURE]
# This is the hash of the Pulseq file, calculated right before the [SIGNATURE] section was added
# It can be reproduced/verified with md5sum if the file trimmed to the position right above [SIGNATURE]
# The new line character preceding [SIGNATURE] BELONGS to the signature (and needs to be stripped away for recalculating/verification)
Type md5
Hash 075b02dd2c85180ad6d78f8e7553e7d0
