# Pulseq sequence file
# Created by PyPulseq

[VERSION]
major 1
minor 5
revision 0

[DEFINITIONS]
AdcRasterTime 1e-07 
BlockDurationRaster 1e-05 
FOV 0.256 0.256 0.003 
GradientRasterTime 1e-05 
Name gre 
RadiofrequencyRasterTime 1e-06 
TotalDuration 0.45632 

# Format of blocks:
# NUM DUR RF  GX  GY  GZ  ADC  EXT
[BLOCKS]
  1 288   0   0   0   0  0  0
  2 425   0    1  0   0  0  0
  3 288   0   0   0   0  0  0
  4 425   0   1   0   0  0  0
  5 288   0   0   0   0  0  0
  6 425   0   1   0   0  0  0
  7 288   0   0   0   0  0  0
  8 425   0   1   0   0  0  0
  9 288   0   0   0   0  0  0
 10 425   0   1   0   0  0  0
 11 288   0   0   0   0  0  0
 12 425   0   1   0   0  0  0
 13 288   0   0   0   0  0  0
 14 425   0   1   0   0  0  0
 15 288   0   0   0   0  0  0
 16 425   0   1   0   0  0  0
 17 288   0   0   0   0  0  0
 18 425   0   1   0   0  0  0
 19 288   0   0   0   0  0  0
 20 425   0   1   0   0  0  0
 21 288   0   0   0   0  0  0
 22 425   0   1   0   0  0  0
 23 288   0   0   0   0  0  0
 24 425   0   1   0   0  0  0
 25 288   0   0   0   0  0  0
 26 425   0   1   0   0  0  0
 27 288   0   0   0   0  0  0
 28 425   0   1   0   0  0  0
 29 288   0   0   0   0  0  0
 30 425   0   1   0   0  0  0
 31 288   0   0   0   0  0  0
 32 425   0   1   0   0  0  0
 33 288   0   0   0   0  0  0
 34 425   0   1   0   0  0  0
 35 288   0   0   0   0  0  0
 36 425   0   1   0   0  0  0
 37 288   0   0   0   0  0  0
 38 425   0   1   0   0  0  0
 39 288   0   0   0   0  0  0
 40 425   0   1   0   0  0  0
 41 288   0   0   0   0  0  0
 42 425   0   1   0   0  0  0
 43 288   0   0   0   0  0  0
 44 425   0   1   0   0  0  0
 45 288   0   0   0   0  0  0
 46 425   0   1   0   0  0  0
 47 288   0   0   0   0  0  0
 48 425   0   1   0   0  0  0
 49 288   0   0   0   0  0  0
 50 425   0   1   0   0  0  0
 51 288   0   0   0   0  0  0
 52 425   0   1   0   0  0  0
 53 288   0   0   0   0  0  0
 54 425   0   1   0   0  0  0
 55 288   0   0   0   0  0  0
 56 425   0   1   0   0  0  0
 57 288   0   0   0   0  0  0
 58 425   0   1   0   0  0  0
 59 288   0   0   0   0  0  0
 60 425   0   1   0   0  0  0
 61 288   0   0   0   0  0  0
 62 425   0   1   0   0  0  0
 63 288   0   0   0   0  0  0
 64 425   0   1   0   0  0  0
 65 288   0   0   0   0  0  0
 66 425   0   1   0   0  0  0
 67 288   0   0   0   0  0  0
 68 425   0   1   0   0  0  0
 69 288   0   0   0   0  0  0
 70 425   0   1   0   0  0  0
 71 288   0   0   0   0  0  0
 72 425   0   1   0   0  0  0
 73 288   0   0   0   0  0  0
 74 425   0   1   0   0  0  0
 75 288   0   0   0   0  0  0
 76 425   0   1   0   0  0  0
 77 288   0   0   0   0  0  0
 78 425   0   1   0   0  0  0
 79 288   0   0   0   0  0  0
 80 425   0   1   0   0  0  0
 81 288   0   0   0   0  0  0
 82 425   0   1   0   0  0  0
 83 288   0   0   0   0  0  0
 84 425   0   1   0   0  0  0
 85 288   0   0   0   0  0  0
 86 425   0   1   0   0  0  0
 87 288   0   0   0   0  0  0
 88 425   0   1   0   0  0  0
 89 288   0   0   0   0  0  0
 90 425   0   1   0   0  0  0
 91 288   0   0   0   0  0  0
 92 425   0   1   0   0  0  0
 93 288   0   0   0   0  0  0
 94 425   0   1   0   0  0  0
 95 288   0   0   0   0  0  0
 96 425   0   1   0   0  0  0
 97 288   0   0   0   0  0  0
 98 425   0   1   0   0  0  0
 99 288   0   0   0   0  0  0
100 425   0   1   0   0  0  0
101 288   0   0   0   0  0  0
102 425   0   1   0   0  0  0
103 288   0   0   0   0  0  0
104 425   0   1   0   0  0  0
105 288   0   0   0   0  0  0
106 425   0   1   0   0  0  0
107 288   0   0   0   0  0  0
108 425   0   1   0   0  0  0
109 288   0   0   0   0  0  0
110 425   0   1   0   0  0  0
111 288   0   0   0   0  0  0
112 425   0   1   0   0  0  0
113 288   0   0   0   0  0  0
114 425   0   1   0   0  0  0
115 288   0   0   0   0  0  0
116 425   0   1   0   0  0  0
117 288   0   0   0   0  0  0
118 425   0   1   0   0  0  0
119 288   0   0   0   0  0  0
120 425   0   1   0   0  0  0
121 288   0   0   0   0  0  0
122 425   0   1   0   0  0  0
123 288   0   0   0   0  0  0
124 425   0   1   0   0  0  0
125 288   0   0   0   0  0  0
126 425   0   1   0   0  0  0
127 288   0   0   0   0  0  0
128 425   0   1   0   0  0  0

# Format of arbitrary gradients:
#   time_shape_id of 0 means default timing (stepping with grad_raster starting at 1/2 of grad_raster)
# id amplitude first last amp_shape_id time_shape_id delay
# ..      Hz/m  Hz/m Hz/m        ..         ..          us
[GRADIENTS]
1  1.17511e+06            0            0 1 2 0

# Sequence Shapes
[SHAPES]

shape_id 1
num_samples 6
0
0.0664830842
0.0664830842
1
1
0

shape_id 2
num_samples 6
0
2
322
340
406
425


[SIGNATURE]
# This is the hash of the Pulseq file, calculated right before the [SIGNATURE] section was added
# It can be reproduced/verified with md5sum if the file trimmed to the position right above [SIGNATURE]
# The new line character preceding [SIGNATURE] BELONGS to the signature (and needs to be stripped away for recalculating/verification)
Type md5
Hash f003f7c348c51be5baf902ecee310fbe
