# Pulseq sequence file
# Created by PyPulseq

[VERSION]
major 1
minor 5
revision 0

[DEFINITIONS]
3D 1 
AdcRasterTime 1e-07 
BlockDurationRaster 1e-05 
FOV 0.256 0.256 0.256 
GradientRasterTime 1e-05 
Name UTE_v1.2.1 
RadiofrequencyRasterTime 1e-06 
SGPoints 0 
TR 5 
TotalDuration 5 
adc_dead_time 1e-05 
alpha 0 
dwell 1e-05 
matrix 128 128 128 
max_grad 1192128 
max_slew 7.66368e+09 
nDummy 100 
nProj 10000 
nSample 79 
nSegment 1 
reord_traj standard 
rf_dead_time 0.0001 
rf_len 5e-05 
rf_ringdown_time 2e-05 
rf_spoiling_inc 117 
rise_time 0.0003 
ro_os 1 
ro_spoil 3 
version_sequence v1.2.1 

# Format of blocks:
# NUM DUR RF  GX  GY  GZ  ADC  EXT
[BLOCKS]
   1  17   1   0   0   0  0  0
   2 176   0   1   2   3  0  0
   3 307   0   0   0   0  0  0
   4  17   2   0   0   0  0  0
   5 176   0   1   2   3  0  0
   6 307   0   0   0   0  0  0
   7  17   3   0   0   0  0  0
   8 176   0   1   2   3  0  0
   9 307   0   0   0   0  0  0
  10  17   4   0   0   0  0  0
  11 176   0   1   2   3  0  0
  12 307   0   0   0   0  0  0
  13  17   5   0   0   0  0  0
  14 176   0   1   2   3  0  0
  15 307   0   0   0   0  0  0
  16  17   6   0   0   0  0  0
  17 176   0   1   2   3  0  0
  18 307   0   0   0   0  0  0
  19  17   7   0   0   0  0  0
  20 176   0   1   2   3  0  0
  21 307   0   0   0   0  0  0
  22  17   8   0   0   0  0  0
  23 176   0   1   2   3  0  0
  24 307   0   0   0   0  0  0
  25  17   9   0   0   0  0  0
  26 176   0   1   2   3  0  0
  27 307   0   0   0   0  0  0
  28  17  10   0   0   0  0  0
  29 176   0   1   2   3  0  0
  30 307   0   0   0   0  0  0
  31  17   6   0   0   0  0  0
  32 176   0   1   2   3  0  0
  33 307   0   0   0   0  0  0
  34  17  11   0   0   0  0  0
  35 176   0   1   2   3  0  0
  36 307   0   0   0   0  0  0
  37  17  12   0   0   0  0  0
  38 176   0   1   2   3  0  0
  39 307   0   0   0   0  0  0
  40  17  13   0   0   0  0  0
  41 176   0   1   2   3  0  0
  42 307   0   0   0   0  0  0
  43  17  14   0   0   0  0  0
  44 176   0   1   2   3  0  0
  45 307   0   0   0   0  0  0
  46  17   1   0   0   0  0  0
  47 176   0   1   2   3  0  0
  48 307   0   0   0   0  0  0
  49  17  15   0   0   0  0  0
  50 176   0   1   2   3  0  0
  51 307   0   0   0   0  0  0
  52  17  16   0   0   0  0  0
  53 176   0   1   2   3  0  0
  54 307   0   0   0   0  0  0
  55  17  13   0   0   0  0  0
  56 176   0   1   2   3  0  0
  57 307   0   0   0   0  0  0
  58  17  17   0   0   0  0  0
  59 176   0   1   2   3  0  0
  60 307   0   0   0   0  0  0
  61  17   5   0   0   0  0  0
  62 176   0   1   2   3  0  0
  63 307   0   0   0   0  0  0
  64  17  18   0   0   0  0  0
  65 176   0   1   2   3  0  0
  66 307   0   0   0   0  0  0
  67  17  19   0   0   0  0  0
  68 176   0   1   2   3  0  0
  69 307   0   0   0   0  0  0
  70  17   9   0   0   0  0  0
  71 176   0   1   2   3  0  0
  72 307   0   0   0   0  0  0
  73  17  20   0   0   0  0  0
  74 176   0   1   2   3  0  0
  75 307   0   0   0   0  0  0
  76  17  10   0   0   0  0  0
  77 176   0   1   2   3  0  0
  78 307   0   0   0   0  0  0
  79  17  18   0   0   0  0  0
  80 176   0   1   2   3  0  0
  81 307   0   0   0   0  0  0
  82  17  21   0   0   0  0  0
  83 176   0   1   2   3  0  0
  84 307   0   0   0   0  0  0
  85  17   4   0   0   0  0  0
  86 176   0   1   2   3  0  0
  87 307   0   0   0   0  0  0
  88  17  22   0   0   0  0  0
  89 176   0   1   2   3  0  0
  90 307   0   0   0   0  0  0
  91  17  14   0   0   0  0  0
  92 176   0   1   2   3  0  0
  93 307   0   0   0   0  0  0
  94  17  15   0   0   0  0  0
  95 176   0   1   2   3  0  0
  96 307   0   0   0   0  0  0
  97  17  23   0   0   0  0  0
  98 176   0   1   2   3  0  0
  99 307   0   0   0   0  0  0
 100  17   2   0   0   0  0  0
 101 176   0   1   2   3  0  0
 102 307   0   0   0   0  0  0
 103  17  22   0   0   0  0  0
 104 176   0   1   2   3  0  0
 105 307   0   0   0   0  0  0
 106  17  17   0   0   0  0  0
 107 176   0   1   2   3  0  0
 108 307   0   0   0   0  0  0
 109  17  11   0   0   0  0  0
 110 176   0   1   2   3  0  0
 111 307   0   0   0   0  0  0
 112  17  24   0   0   0  0  0
 113 176   0   1   2   3  0  0
 114 307   0   0   0   0  0  0
 115  17   7   0   0   0  0  0
 116 176   0   1   2   3  0  0
 117 307   0   0   0   0  0  0
 118  17  20   0   0   0  0  0
 119 176   0   1   2   3  0  0
 120 307   0   0   0   0  0  0
 121  17  20   0   0   0  0  0
 122 176   0   1   2   3  0  0
 123 307   0   0   0   0  0  0
 124  17   7   0   0   0  0  0
 125 176   0   1   2   3  0  0
 126 307   0   0   0   0  0  0
 127  17  24   0   0   0  0  0
 128 176   0   1   2   3  0  0
 129 307   0   0   0   0  0  0
 130  17  11   0   0   0  0  0
 131 176   0   1   2   3  0  0
 132 307   0   0   0   0  0  0
 133  17  17   0   0   0  0  0
 134 176   0   1   2   3  0  0
 135 307   0   0   0   0  0  0
 136  17  22   0   0   0  0  0
 137 176   0   1   2   3  0  0
 138 307   0   0   0   0  0  0
 139  17   2   0   0   0  0  0
 140 176   0   1   2   3  0  0
 141 307   0   0   0   0  0  0
 142  17  23   0   0   0  0  0
 143 176   0   1   2   3  0  0
 144 307   0   0   0   0  0  0
 145  17  15   0   0   0  0  0
 146 176   0   1   2   3  0  0
 147 307   0   0   0   0  0  0
 148  17  14   0   0   0  0  0
 149 176   0   1   2   3  0  0
 150 307   0   0   0   0  0  0
 151  17  22   0   0   0  0  0
 152 176   0   1   2   3  0  0
 153 307   0   0   0   0  0  0
 154  17   4   0   0   0  0  0
 155 176   0   1   2   3  0  0
 156 307   0   0   0   0  0  0
 157  17  21   0   0   0  0  0
 158 176   0   1   2   3  0  0
 159 307   0   0   0   0  0  0
 160  17  18   0   0   0  0  0
 161 176   0   1   2   3  0  0
 162 307   0   0   0   0  0  0
 163  17  10   0   0   0  0  0
 164 176   0   1   2   3  0  0
 165 307   0   0   0   0  0  0
 166  17  20   0   0   0  0  0
 167 176   0   1   2   3  0  0
 168 307   0   0   0   0  0  0
 169  17   9   0   0   0  0  0
 170 176   0   1   2   3  0  0
 171 307   0   0   0   0  0  0
 172  17  19   0   0   0  0  0
 173 176   0   1   2   3  0  0
 174 307   0   0   0   0  0  0
 175  17  18   0   0   0  0  0
 176 176   0   1   2   3  0  0
 177 307   0   0   0   0  0  0
 178  17   5   0   0   0  0  0
 179 176   0   1   2   3  0  0
 180 307   0   0   0   0  0  0
 181  17  17   0   0   0  0  0
 182 176   0   1   2   3  0  0
 183 307   0   0   0   0  0  0
 184  17  13   0   0   0  0  0
 185 176   0   1   2   3  0  0
 186 307   0   0   0   0  0  0
 187  17  16   0   0   0  0  0
 188 176   0   1   2   3  0  0
 189 307   0   0   0   0  0  0
 190  17  15   0   0   0  0  0
 191 176   0   1   2   3  0  0
 192 307   0   0   0   0  0  0
 193  17   1   0   0   0  0  0
 194 176   0   1   2   3  0  0
 195 307   0   0   0   0  0  0
 196  17  14   0   0   0  0  0
 197 176   0   1   2   3  0  0
 198 307   0   0   0   0  0  0
 199  17  13   0   0   0  0  0
 200 176   0   1   2   3  0  0
 201 307   0   0   0   0  0  0
 202  17  12   0   0   0  0  0
 203 176   0   1   2   3  0  0
 204 307   0   0   0   0  0  0
 205  17  11   0   0   0  0  0
 206 176   0   1   2   3  0  0
 207 307   0   0   0   0  0  0
 208  17   6   0   0   0  0  0
 209 176   0   1   2   3  0  0
 210 307   0   0   0   0  0  0
 211  17  10   0   0   0  0  0
 212 176   0   1   2   3  0  0
 213 307   0   0   0   0  0  0
 214  17   9   0   0   0  0  0
 215 176   0   1   2   3  0  0
 216 307   0   0   0   0  0  0
 217  17   8   0   0   0  0  0
 218 176   0   1   2   3  0  0
 219 307   0   0   0   0  0  0
 220  17   7   0   0   0  0  0
 221 176   0   1   2   3  0  0
 222 307   0   0   0   0  0  0
 223  17   6   0   0   0  0  0
 224 176   0   1   2   3  0  0
 225 307   0   0   0   0  0  0
 226  17   5   0   0   0  0  0
 227 176   0   1   2   3  0  0
 228 307   0   0   0   0  0  0
 229  17   4   0   0   0  0  0
 230 176   0   1   2   3  0  0
 231 307   0   0   0   0  0  0
 232  17   3   0   0   0  0  0
 233 176   0   1   2   3  0  0
 234 307   0   0   0   0  0  0
 235  17   2   0   0   0  0  0
 236 176   0   1   2   3  0  0
 237 307   0   0   0   0  0  0
 238  17   1   0   0   0  0  0
 239 176   0   1   2   3  0  0
 240 307   0   0   0   0  0  0
 241  17   1   0   0   0  0  0
 242 176   0   1   2   3  0  0
 243 307   0   0   0   0  0  0
 244  17   2   0   0   0  0  0
 245 176   0   1   2   3  0  0
 246 307   0   0   0   0  0  0
 247  17   3   0   0   0  0  0
 248 176   0   1   2   3  0  0
 249 307   0   0   0   0  0  0
 250  17   4   0   0   0  0  0
 251 176   0   1   2   3  0  0
 252 307   0   0   0   0  0  0
 253  17   5   0   0   0  0  0
 254 176   0   1   2   3  0  0
 255 307   0   0   0   0  0  0
 256  17   6   0   0   0  0  0
 257 176   0   1   2   3  0  0
 258 307   0   0   0   0  0  0
 259  17   7   0   0   0  0  0
 260 176   0   1   2   3  0  0
 261 307   0   0   0   0  0  0
 262  17   8   0   0   0  0  0
 263 176   0   1   2   3  0  0
 264 307   0   0   0   0  0  0
 265  17   9   0   0   0  0  0
 266 176   0   1   2   3  0  0
 267 307   0   0   0   0  0  0
 268  17  10   0   0   0  0  0
 269 176   0   1   2   3  0  0
 270 307   0   0   0   0  0  0
 271  17   6   0   0   0  0  0
 272 176   0   1   2   3  0  0
 273 307   0   0   0   0  0  0
 274  17  11   0   0   0  0  0
 275 176   0   1   2   3  0  0
 276 307   0   0   0   0  0  0
 277  17  12   0   0   0  0  0
 278 176   0   1   2   3  0  0
 279 307   0   0   0   0  0  0
 280  17  13   0   0   0  0  0
 281 176   0   1   2   3  0  0
 282 307   0   0   0   0  0  0
 283  17  14   0   0   0  0  0
 284 176   0   1   2   3  0  0
 285 307   0   0   0   0  0  0
 286  17   1   0   0   0  0  0
 287 176   0   1   2   3  0  0
 288 307   0   0   0   0  0  0
 289  17  15   0   0   0  0  0
 290 176   0   1   2   3  0  0
 291 307   0   0   0   0  0  0
 292  17  16   0   0   0  0  0
 293 176   0   1   2   3  0  0
 294 307   0   0   0   0  0  0
 295  17  13   0   0   0  0  0
 296 176   0   1   2   3  0  0
 297 307   0   0   0   0  0  0
 298  17  17   0   0   0  0  0
 299 176   0   1   2   3  0  0
 300 307   0   0   0   0  0  0
 301  17   5   0   0   0  0  0
[RF]
1      555.556 1 2 3 25 100 0 0 0 0 u
2      555.556 1 2 3 25 100 0 0 0 2.04204 u
3      555.556 1 2 3 25 100 0 0 0 6.12611 u
4      555.556 1 2 3 25 100 0 0 0 5.96903 u
5      555.556 1 2 3 25 100 0 0 0 1.5708 u
6      555.556 1 2 3 25 100 0 0 0 5.49779 u
7      555.556 1 2 3 25 100 0 0 0 5.18363 u
8      555.556 1 2 3 25 100 0 0 0 0.628319 u
9      555.556 1 2 3 25 100 0 0 0 4.39823 u
10      555.556 1 2 3 25 100 0 0 0 3.92699 u
11      555.556 1 2 3 25 100 0 0 0 2.82743 u
12      555.556 1 2 3 25 100 0 0 0 2.19911 u
13      555.556 1 2 3 25 100 0 0 0 3.61283 u
14      555.556 1 2 3 25 100 0 0 0 0.785398 u
15      555.556 1 2 3 25 100 0 0 0 1.25664 u
16      555.556 1 2 3 25 100 0 0 0 4.55531 u
17      555.556 1 2 3 25 100 0 0 0 4.71239 u
18      555.556 1 2 3 25 100 0 0 0 0.471239 u
19      555.556 1 2 3 25 100 0 0 0 1.41372 u
20      555.556 1 2 3 25 100 0 0 0 3.14159 u
21      555.556 1 2 3 25 100 0 0 0 5.34071 u
22      555.556 1 2 3 25 100 0 0 0 2.35619 u
23      555.556 1 2 3 25 100 0 0 0 3.76991 u
24      555.556 1 2 3 25 100 0 0 0 2.98451 u

# Format of arbitrary gradients:
#   time_shape_id of 0 means default timing (stepping with grad_raster starting at 1/2 of grad_raster)
# id amplitude first last amp_shape_id time_shape_id delay
# ..      Hz/m  Hz/m Hz/m        ..         ..          us
[GRADIENTS]
1  1.43513e-10            0            0 4 5 0
2            0            0            0 6 5 0
3 -1.17188e+06           -0           -0 4 5 0
4     -5325.05           -0           -0 4 5 0
5      22824.6            0            0 4 5 0
6 -1.17164e+06           -0           -0 4 5 0
7     -33065.7           -0           -0 4 5 0
8      2276.42            0            0 4 5 0
9 -1.17141e+06           -0           -0 4 5 0
10       -22926           -0           -0 4 5 0
11     -33496.5           -0           -0 4 5 0
12 -1.17117e+06           -0           -0 4 5 0
13      13847.6            0            0 4 5 0
14     -44775.6           -0           -0 4 5 0
15 -1.17094e+06           -0           -0 4 5 0
16      46817.1            0            0 4 5 0
17     -23529.6           -0           -0 4 5 0
18  -1.1707e+06           -0           -0 4 5 0
19      55326.6            0            0 4 5 0
20      15271.4            0            0 4 5 0
21 -1.17047e+06           -0           -0 4 5 0
22      36066.5            0            0 4 5 0
23      50419.4            0            0 4 5 0
24 -1.17023e+06           -0           -0 4 5 0
25        -1039           -0           -0 4 5 0
26      66259.9            0            0 4 5 0
27    -1.17e+06           -0           -0 4 5 0
28     -40603.9           -0           -0 4 5 0
29      57369.1            0            0 4 5 0
30 -1.16977e+06           -0           -0 4 5 0
31     -68648.1           -0           -0 4 5 0
32      27850.5            0            0 4 5 0
33 -1.16953e+06           -0           -0 4 5 0
34     -76731.8           -0           -0 4 5 0
35     -12192.6           -0           -0 4 5 0
36  -1.1693e+06           -0           -0 4 5 0
37     -63224.5           -0           -0 4 5 0
38     -50864.6           -0           -0 4 5 0
39 -1.16906e+06           -0           -0 4 5 0
40     -32403.9           -0           -0 4 5 0
41     -77990.6           -0           -0 4 5 0
42 -1.16883e+06           -0           -0 4 5 0
43      7667.28            0            0 4 5 0
44       -87302           -0           -0 4 5 0
45 -1.16859e+06           -0           -0 4 5 0
46        47620            0            0 4 5 0
47     -77204.5           -0           -0 4 5 0
48 -1.16836e+06           -0           -0 4 5 0
49      78981.3            0            0 4 5 0
50     -50376.9           -0           -0 4 5 0
51 -1.16812e+06           -0           -0 4 5 0
52      95732.4            0            0 4 5 0
53     -12599.6           -0           -0 4 5 0
54 -1.16789e+06           -0           -0 4 5 0
55      95096.1            0            0 4 5 0
56      28768.2            0            0 4 5 0
57 -1.16766e+06           -0           -0 4 5 0
58      77599.4            0            0 4 5 0
59      66306.5            0            0 4 5 0
60 -1.16742e+06           -0           -0 4 5 0
61      46566.9            0            0 4 5 0
62      93792.2            0            0 4 5 0
63 -1.16719e+06           -0           -0 4 5 0
64      7253.13            0            0 4 5 0
65       107051            0            0 4 5 0
66 -1.16695e+06           -0           -0 4 5 0
67     -34180.9           -0           -0 4 5 0
68       104361            0            0 4 5 0
69 -1.16672e+06           -0           -0 4 5 0
70     -71664.5           -0           -0 4 5 0
71      86433.1            0            0 4 5 0
72 -1.16648e+06           -0           -0 4 5 0
73      -100054           -0           -0 4 5 0
74      56057.5            0            0 4 5 0
75 -1.16625e+06           -0           -0 4 5 0
76      -115728           -0           -0 4 5 0
77      17521.6            0            0 4 5 0
78 -1.16602e+06           -0           -0 4 5 0
79      -116903           -0           -0 4 5 0
80     -24085.8           -0           -0 4 5 0
81 -1.16578e+06           -0           -0 4 5 0
82      -103686           -0           -0 4 5 0
83     -63577.7           -0           -0 4 5 0
84 -1.16555e+06           -0           -0 4 5 0
85     -77888.6           -0           -0 4 5 0
86     -96294.8           -0           -0 4 5 0
87 -1.16531e+06           -0           -0 4 5 0
88     -42672.7           -0           -0 4 5 0
89      -118594           -0           -0 4 5 0
90 -1.16508e+06           -0           -0 4 5 0
91     -2087.56           -0           -0 4 5 0
92      -128169           -0           -0 4 5 0
93 -1.16484e+06           -0           -0 4 5 0
94      39437.1            0            0 4 5 0
95      -124187           -0           -0 4 5 0
96 -1.16461e+06           -0           -0 4 5 0
97      77580.2            0            0 4 5 0
98      -107261           -0           -0 4 5 0
99 -1.16437e+06           -0           -0 4 5 0
100       108556            0            0 4 5 0
101     -79278.1           -0           -0 4 5 0
102 -1.16414e+06           -0           -0 4 5 0
103       129444            0            0 4 5 0
104       -43121           -0           -0 4 5 0
105 -1.16391e+06           -0           -0 4 5 0
106       138403            0            0 4 5 0
107     -2323.92           -0           -0 4 5 0
108 -1.16367e+06           -0           -0 4 5 0
109       134766            0            0 4 5 0
110      39298.3            0            0 4 5 0
111 -1.16344e+06           -0           -0 4 5 0
112       119020            0            0 4 5 0
113      78010.7            0            0 4 5 0
114  -1.1632e+06           -0           -0 4 5 0
115      92689.8            0            0 4 5 0
116       110478            0            0 4 5 0
117 -1.16297e+06           -0           -0 4 5 0
118      58136.7            0            0 4 5 0
119       134023            0            0 4 5 0
120 -1.16273e+06           -0           -0 4 5 0
121      18316.2            0            0 4 5 0
122       146804            0            0 4 5 0
123  -1.1625e+06           -0           -0 4 5 0
124     -23499.5           -0           -0 4 5 0
125       147918            0            0 4 5 0
126 -1.16226e+06           -0           -0 4 5 0
127     -63997.1           -0           -0 4 5 0
128       137408            0            0 4 5 0
129 -1.16203e+06           -0           -0 4 5 0
130      -100080           -0           -0 4 5 0
131       116213            0            0 4 5 0
132  -1.1618e+06           -0           -0 4 5 0
133      -129086           -0           -0 4 5 0
134      86039.3            0            0 4 5 0
135 -1.16156e+06           -0           -0 4 5 0
136      -148963           -0           -0 4 5 0
137      49197.2            0            0 4 5 0
138 -1.16133e+06           -0           -0 4 5 0
139      -158380           -0           -0 4 5 0
140      8400.47            0            0 4 5 0
141 -1.16109e+06           -0           -0 4 5 0
142      -156782           -0           -0 4 5 0
143     -33445.2           -0           -0 4 5 0
144 -1.16086e+06           -0           -0 4 5 0
145      -144388           -0           -0 4 5 0
146     -73452.2           -0           -0 4 5 0
147 -1.16062e+06           -0           -0 4 5 0
148      -122141           -0           -0 4 5 0
149      -108945           -0           -0 4 5 0
150 -1.16039e+06           -0           -0 4 5 0
151     -91601.2           -0           -0 4 5 0
152      -137624           -0           -0 4 5 0
153 -1.16016e+06           -0           -0 4 5 0
154     -54823.4           -0           -0 4 5 0
155      -157700           -0           -0 4 5 0
156 -1.15992e+06           -0           -0 4 5 0
157     -14197.5           -0           -0 4 5 0
158      -167980           -0           -0 4 5 0
159 -1.15969e+06           -0           -0 4 5 0
160      27713.9            0            0 4 5 0
161      -167912           -0           -0 4 5 0
162 -1.15945e+06           -0           -0 4 5 0
163      68340.4            0            0 4 5 0
164      -157593           -0           -0 4 5 0
165 -1.15922e+06           -0           -0 4 5 0
166       105258            0            0 4 5 0
167      -137731           -0           -0 4 5 0
168 -1.15898e+06           -0           -0 4 5 0
169       136327            0            0 4 5 0
170      -109579           -0           -0 4 5 0
171 -1.15875e+06           -0           -0 4 5 0
172       159799            0            0 4 5 0
173     -74833.1           -0           -0 4 5 0
174 -1.15851e+06           -0           -0 4 5 0
175       174404            0            0 4 5 0
176     -35523.4           -0           -0 4 5 0
177 -1.15828e+06           -0           -0 4 5 0
178       179400            0            0 4 5 0
179      6117.54            0            0 4 5 0
180 -1.15805e+06           -0           -0 4 5 0
181       174588            0            0 4 5 0
182      47784.4            0            0 4 5 0
183 -1.15781e+06           -0           -0 4 5 0
184       160308            0            0 4 5 0
185      87226.5            0            0 4 5 0
186 -1.15758e+06           -0           -0 4 5 0
187       137392            0            0 4 5 0
188       122366            0            0 4 5 0
189 -1.15734e+06           -0           -0 4 5 0
190       107103            0            0 4 5 0
191       151398            0            0 4 5 0
192 -1.15711e+06           -0           -0 4 5 0
193      71057.4            0            0 4 5 0
194       172874            0            0 4 5 0
195 -1.15687e+06           -0           -0 4 5 0
196      31123.6            0            0 4 5 0
197       185764            0            0 4 5 0
198 -1.15664e+06           -0           -0 4 5 0
199     -10676.8           -0           -0 4 5 0
200       189487            0            0 4 5 0
201  -1.1564e+06           -0           -0 4 5 0
202     -52275.9           -0           -0 4 5 0
203       183925            0            0 4 5 0
204 -1.15617e+06           -0           -0 4 5 0
205     -91660.5           -0           -0 4 5 0
206       169415            0            0 4 5 0
207 -1.15594e+06           -0           -0 4 5 0
208      -126967           -0           -0 4 5 0
209       146712            0            0 4 5 0
210  -1.1557e+06           -0           -0 4 5 0
211      -156562           -0           -0 4 5 0
212       116941            0            0 4 5 0
213 -1.15547e+06           -0           -0 4 5 0
214      -179112           -0           -0 4 5 0
215      81530.4            0            0 4 5 0
216 -1.15523e+06           -0           -0 4 5 0
217      -193635           -0           -0 4 5 0
218      42137.7            0            0 4 5 0
219   -1.155e+06           -0           -0 4 5 0
220      -199527           -0           -0 4 5 0
221      566.072            0            0 4 5 0
222 -1.15476e+06           -0           -0 4 5 0
223      -196584           -0           -0 4 5 0
224     -41320.5           -0           -0 4 5 0
225 -1.15453e+06           -0           -0 4 5 0
226      -184992           -0           -0 4 5 0
227     -81681.3           -0           -0 4 5 0
228  -1.1543e+06           -0           -0 4 5 0
229      -165308           -0           -0 4 5 0
230      -118778           -0           -0 4 5 0
231 -1.15406e+06           -0           -0 4 5 0
232      -138425           -0           -0 4 5 0
233      -151044           -0           -0 4 5 0
234 -1.15383e+06           -0           -0 4 5 0
235      -105523           -0           -0 4 5 0
236      -177148           -0           -0 4 5 0
237 -1.15359e+06           -0           -0 4 5 0
238     -68009.7           -0           -0 4 5 0
239      -196041           -0           -0 4 5 0
240 -1.15336e+06           -0           -0 4 5 0
241     -27456.6           -0           -0 4 5 0
242      -206988           -0           -0 4 5 0
243 -1.15312e+06           -0           -0 4 5 0
244      14469.5            0            0 4 5 0
245      -209593           -0           -0 4 5 0
246 -1.15289e+06           -0           -0 4 5 0
247      56077.3            0            0 4 5 0
248      -203800           -0           -0 4 5 0
249 -1.15265e+06           -0           -0 4 5 0
250      95718.2            0            0 4 5 0
251      -189888           -0           -0 4 5 0
252 -1.15242e+06           -0           -0 4 5 0
253       131850            0            0 4 5 0
254      -168449           -0           -0 4 5 0
255 -1.15219e+06           -0           -0 4 5 0
256       163093            0            0 4 5 0
257      -140357           -0           -0 4 5 0
258 -1.15195e+06           -0           -0 4 5 0
259       188280            0            0 4 5 0
260      -106725           -0           -0 4 5 0
261 -1.15172e+06           -0           -0 4 5 0
262       206490            0            0 4 5 0
263     -68856.9           -0           -0 4 5 0
264 -1.15148e+06           -0           -0 4 5 0
265       217082            0            0 4 5 0
266     -28192.2           -0           -0 4 5 0
267 -1.15125e+06           -0           -0 4 5 0
268       219704            0            0 4 5 0
269        13749            0            0 4 5 0
270 -1.15101e+06           -0           -0 4 5 0
271       214304            0            0 4 5 0
272      55425.7            0            0 4 5 0
273 -1.15078e+06           -0           -0 4 5 0
274       201121            0            0 4 5 0
275      95331.3            0            0 4 5 0
276 -1.15054e+06           -0           -0 4 5 0
277       180667            0            0 4 5 0
278       132047            0            0 4 5 0
279 -1.15031e+06           -0           -0 4 5 0
280       153705            0            0 4 5 0
281       164290            0            0 4 5 0
282 -1.15008e+06           -0           -0 4 5 0
283       121213            0            0 4 5 0
284       190953            0            0 4 5 0
285 -1.14984e+06           -0           -0 4 5 0
286      84344.6            0            0 4 5 0
287       211141            0            0 4 5 0
288 -1.14961e+06           -0           -0 4 5 0
289      44387.5            0            0 4 5 0
290       224194            0            0 4 5 0
291 -1.14937e+06           -0           -0 4 5 0
292      2713.67            0            0 4 5 0
293       229706            0            0 4 5 0
294 -1.14914e+06           -0           -0 4 5 0
295     -39268.1           -0           -0 4 5 0
296       227527            0            0 4 5 0
297  -1.1489e+06           -0           -0 4 5 0
298     -80159.8           -0           -0 4 5 0
299       217770            0            0 4 5 0
300 -1.14867e+06           -0           -0 4 5 0
301      -118620           -0           -0 4 5 0
302       200791            0            0 4 5 0
303 -1.14844e+06           -0           -0 4 5 0
304      -153406           -0           -0 4 5 0
305       177179            0            0 4 5 0
306  -1.1482e+06           -0           -0 4 5 0
307      -183413           -0           -0 4 5 0
308       147729            0            0 4 5 0
309 -1.14797e+06           -0           -0 4 5 0
310      -207703           -0           -0 4 5 0
311       113410            0            0 4 5 0
312 -1.14773e+06           -0           -0 4 5 0
313      -225534           -0           -0 4 5 0
314        75331            0            0 4 5 0
315  -1.1475e+06           -0           -0 4 5 0
316      -236376           -0           -0 4 5 0
317      34704.7            0            0 4 5 0
318 -1.14726e+06           -0           -0 4 5 0
319      -239926           -0           -0 4 5 0
320     -7194.78           -0           -0 4 5 0
321 -1.14703e+06           -0           -0 4 5 0
322      -236105           -0           -0 4 5 0
323     -49071.7           -0           -0 4 5 0
324 -1.14679e+06           -0           -0 4 5 0
325      -225065           -0           -0 4 5 0
326     -89648.8           -0           -0 4 5 0
327 -1.14656e+06           -0           -0 4 5 0
328      -207172           -0           -0 4 5 0
329      -127705           -0           -0 4 5 0
330 -1.14633e+06           -0           -0 4 5 0
331      -182990           -0           -0 4 5 0
332      -162113           -0           -0 4 5 0
333 -1.14609e+06           -0           -0 4 5 0
334      -153267           -0           -0 4 5 0
335      -191865           -0           -0 4 5 0
336 -1.14586e+06           -0           -0 4 5 0
337      -118901           -0           -0 4 5 0
338      -216109           -0           -0 4 5 0
339 -1.14562e+06           -0           -0 4 5 0
340     -80913.2           -0           -0 4 5 0
341      -234159           -0           -0 4 5 0
342 -1.14539e+06           -0           -0 4 5 0
343     -40417.8           -0           -0 4 5 0
344      -245521           -0           -0 4 5 0
345 -1.14515e+06           -0           -0 4 5 0
346      1414.18            0            0 4 5 0
347      -249898           -0           -0 4 5 0
348 -1.14492e+06           -0           -0 4 5 0
349      43388.7            0            0 4 5 0
350      -247195           -0           -0 4 5 0
351 -1.14468e+06           -0           -0 4 5 0
352      84322.6            0            0 4 5 0
353      -237516           -0           -0 4 5 0
354 -1.14445e+06           -0           -0 4 5 0
355       123077            0            0 4 5 0
356      -221163           -0           -0 4 5 0
357 -1.14422e+06           -0           -0 4 5 0
358       158587            0            0 4 5 0
359      -198613           -0           -0 4 5 0
360 -1.14398e+06           -0           -0 4 5 0
361       189891            0            0 4 5 0
362      -170514           -0           -0 4 5 0
363 -1.14375e+06           -0           -0 4 5 0
364       216152            0            0 4 5 0
365      -137651           -0           -0 4 5 0
366 -1.14351e+06           -0           -0 4 5 0
367       236681            0            0 4 5 0
368      -100933           -0           -0 4 5 0
369 -1.14328e+06           -0           -0 4 5 0
370       250951            0            0 4 5 0
371     -61358.3           -0           -0 4 5 0
372 -1.14304e+06           -0           -0 4 5 0
373       258607            0            0 4 5 0
374     -19991.2           -0           -0 4 5 0
375 -1.14281e+06           -0           -0 4 5 0
376       259472            0            0 4 5 0
377      22070.5            0            0 4 5 0
378 -1.14258e+06           -0           -0 4 5 0
379       253551            0            0 4 5 0
380      63723.1            0            0 4 5 0
381 -1.14234e+06           -0           -0 4 5 0
382       241022            0            0 4 5 0
383       103887            0            0 4 5 0
