# Pulseq sequence file
# Created by PyPulseq

[VERSION]
major 1
minor 5
revision 0

[DEFINITIONS]
3D 1 
AdcRasterTime 1e-07 
BlockDurationRaster 1e-05 
FOV 0.256 0.256 0.256 
GradientRasterTime 1e-05 
Name UTE_v1.2.1 
RadiofrequencyRasterTime 1e-06 
SGPoints 0 
TR 5 
TotalDuration 0.5 
adc_dead_time 1e-05 
alpha 0 
dwell 1e-05 
matrix 128 128 128 
max_grad 1192128 
max_slew 7.66368e+09 
nDummy 100 
nProj 10000 
nSample 79 
nSegment 1 
reord_traj standard 
rf_dead_time 0.0001 
rf_len 5e-05 
rf_ringdown_time 2e-05 
rf_spoiling_inc 117 
rise_time 0.0003 
ro_os 1 
ro_spoil 3 
version_sequence v1.2.1 

# Format of blocks:
# NUM DUR RF  GX  GY  GZ  ADC  EXT
[BLOCKS]
  1  17   1   0   0   0  0  0
  2 176   0   1   2   3  1  0
  3 307   0   0   0   0  0  0
  4  17   2   0   0   0  0  0
  5 176   0   4   5   6  2  0
  6 307   0   0   0   0  0  0
  7  17   3   0   0   0  0  0
  8 176   0   7   8   9  3  0
  9 307   0   0   0   0  0  0
 10  17   4   0   0   0  0  0
 11 176   0  10  11  12  4  0
 12 307   0   0   0   0  0  0
 13  17   5   0   0   0  0  0
 14 176   0  13  14  15  5  0
 15 307   0   0   0   0  0  0
 16  17   6   0   0   0  0  0
 17 176   0  16  17  18  6  0
 18 307   0   0   0   0  0  0
 19  17   7   0   0   0  0  0
 20 176   0  19  20  21  7  0
 21 307   0   0   0   0  0  0
 22  17   8   0   0   0  0  0
 23 176   0  22  23  24  8  0
 24 307   0   0   0   0  0  0
 25  17   9   0   0   0  0  0
 26 176   0  25  26  27  9  0
 27 307   0   0   0   0  0  0
 28  17  10   0   0   0  0  0
 29 176   0  28  29  30 10  0
 30 307   0   0   0   0  0  0
 31  17   6   0   0   0  0  0
 32 176   0  31  32  33  6  0
 33 307   0   0   0   0  0  0
 34  17  11   0   0   0  0  0
 35 176   0  34  35  36 11  0
 36 307   0   0   0   0  0  0
 37  17  12   0   0   0  0  0
 38 176   0  37  38  39 12  0
 39 307   0   0   0   0  0  0
 40  17  13   0   0   0  0  0
 41 176   0  40  41  42 13  0
 42 307   0   0   0   0  0  0
 43  17  14   0   0   0  0  0
 44 176   0  43  44  45 14  0
 45 307   0   0   0   0  0  0
 46  17   1   0   0   0  0  0
 47 176   0  46  47  48  1  0
 48 307   0   0   0   0  0  0
 49  17  15   0   0   0  0  0
 50 176   0  49  50  51 15  0
 51 307   0   0   0   0  0  0
 52  17  16   0   0   0  0  0
 53 176   0  52  53  54 16  0
 54 307   0   0   0   0  0  0
 55  17  13   0   0   0  0  0
 56 176   0  55  56  57 13  0
 57 307   0   0   0   0  0  0
 58  17  17   0   0   0  0  0
 59 176   0  58  59  60 17  0
 60 307   0   0   0   0  0  0
 61  17   5   0   0   0  0  0
 62 176   0  61  62  63  5  0
 63 307   0   0   0   0  0  0
 64  17  18   0   0   0  0  0
 65 176   0  64  65  66 18  0
 66 307   0   0   0   0  0  0
 67  17  19   0   0   0  0  0
 68 176   0  67  68  69 19  0
 69 307   0   0   0   0  0  0
 70  17   9   0   0   0  0  0
 71 176   0  70  71  72  9  0
 72 307   0   0   0   0  0  0
 73  17  20   0   0   0  0  0
 74 176   0  73  74  75 20  0
 75 307   0   0   0   0  0  0
 76  17  10   0   0   0  0  0
 77 176   0  76  77  78 10  0
 78 307   0   0   0   0  0  0
 79  17  18   0   0   0  0  0
 80 176   0  79  80  81 18  0
 81 307   0   0   0   0  0  0
 82  17  21   0   0   0  0  0
 83 176   0  82  83  84 21  0
 84 307   0   0   0   0  0  0
 85  17   4   0   0   0  0  0
 86 176   0  85  86  87  4  0
 87 307   0   0   0   0  0  0
 88  17  22   0   0   0  0  0
 89 176   0  88  89  90 22  0
 90 307   0   0   0   0  0  0
 91  17  14   0   0   0  0  0
 92 176   0  91  92  93 14  0
 93 307   0   0   0   0  0  0
 94  17  15   0   0   0  0  0
 95 176   0  94  95  96 15  0
 96 307   0   0   0   0  0  0
 97  17  23   0   0   0  0  0
 98 176   0  97  98  99 23  0
 99 307   0   0   0   0  0  0
100  17   2   0   0   0  0  0
101 176   0 100 101 102  2  0
102 307   0   0   0   0  0  0
103  17  22   0   0   0  0  0
104 176   0 103 104 105 22  0
105 307   0   0   0   0  0  0
106  17  17   0   0   0  0  0
107 176   0 106 107 108 17  0
108 307   0   0   0   0  0  0
109  17  11   0   0   0  0  0
110 176   0 109 110 111 11  0
111 307   0   0   0   0  0  0
112  17  24   0   0   0  0  0
113 176   0 112 113 114 24  0
114 307   0   0   0   0  0  0
115  17   7   0   0   0  0  0
116 176   0 115 116 117  7  0
117 307   0   0   0   0  0  0
118  17  20   0   0   0  0  0
119 176   0 118 119 120 20  0
120 307   0   0   0   0  0  0
121  17  20   0   0   0  0  0
122 176   0 121 122 123 20  0
123 307   0   0   0   0  0  0
124  17   7   0   0   0  0  0
125 176   0 124 125 126  7  0
126 307   0   0   0   0  0  0
127  17  24   0   0   0  0  0
128 176   0 127 128 129 24  0
129 307   0   0   0   0  0  0
130  17  11   0   0   0  0  0
131 176   0 130 131 132 11  0
132 307   0   0   0   0  0  0
133  17  17   0   0   0  0  0
134 176   0 133 134 135 17  0
135 307   0   0   0   0  0  0
136  17  22   0   0   0  0  0
137 176   0 136 137 138 22  0
138 307   0   0   0   0  0  0
139  17   2   0   0   0  0  0
140 176   0 139 140 141  2  0
141 307   0   0   0   0  0  0
142  17  23   0   0   0  0  0
143 176   0 142 143 144 23  0
144 307   0   0   0   0  0  0
145  17  15   0   0   0  0  0
146 176   0 145 146 147 15  0
147 307   0   0   0   0  0  0
148  17  14   0   0   0  0  0
149 176   0 148 149 150 14  0
150 307   0   0   0   0  0  0
151  17  22   0   0   0  0  0
152 176   0 151 152 153 22  0
153 307   0   0   0   0  0  0
154  17   4   0   0   0  0  0
155 176   0 154 155 156  4  0
156 307   0   0   0   0  0  0
157  17  21   0   0   0  0  0
158 176   0 157 158 159 21  0
159 307   0   0   0   0  0  0
160  17  18   0   0   0  0  0
161 176   0 160 161 162 18  0
162 307   0   0   0   0  0  0
163  17  10   0   0   0  0  0
164 176   0 163 164 165 10  0
165 307   0   0   0   0  0  0
166  17  20   0   0   0  0  0
167 176   0 166 167 168 20  0
168 307   0   0   0   0  0  0
169  17   9   0   0   0  0  0
170 176   0 169 170 171  9  0
171 307   0   0   0   0  0  0
172  17  19   0   0   0  0  0
173 176   0 172 173 174 19  0
174 307   0   0   0   0  0  0
175  17  18   0   0   0  0  0
176 176   0 175 176 177 18  0
177 307   0   0   0   0  0  0
178  17   5   0   0   0  0  0
179 176   0 178 179 180  5  0
180 307   0   0   0   0  0  0
181  17  17   0   0   0  0  0
182 176   0 181 182 183 17  0
183 307   0   0   0   0  0  0
184  17  13   0   0   0  0  0
185 176   0 184 185 186 13  0
186 307   0   0   0   0  0  0
187  17  16   0   0   0  0  0
188 176   0 187 188 189 16  0
189 307   0   0   0   0  0  0
190  17  15   0   0   0  0  0
191 176   0 190 191 192 15  0
192 307   0   0   0   0  0  0
193  17   1   0   0   0  0  0
194 176   0 193 194 195  1  0
195 307   0   0   0   0  0  0
196  17  14   0   0   0  0  0
197 176   0 196 197 198 14  0
198 307   0   0   0   0  0  0
199  17  13   0   0   0  0  0
200 176   0 199 200 201 13  0
201 307   0   0   0   0  0  0
202  17  12   0   0   0  0  0
203 176   0 202 203 204 12  0
204 307   0   0   0   0  0  0
205  17  11   0   0   0  0  0
206 176   0 205 206 207 11  0
207 307   0   0   0   0  0  0
208  17   6   0   0   0  0  0
209 176   0 208 209 210  6  0
210 307   0   0   0   0  0  0
211  17  10   0   0   0  0  0
212 176   0 211 212 213 10  0
213 307   0   0   0   0  0  0
214  17   9   0   0   0  0  0
215 176   0 214 215 216  9  0
216 307   0   0   0   0  0  0
217  17   8   0   0   0  0  0
218 176   0 217 218 219  8  0
219 307   0   0   0   0  0  0
220  17   7   0   0   0  0  0
221 176   0 220 221 222  7  0
222 307   0   0   0   0  0  0
223  17   6   0   0   0  0  0
224 176   0 223 224 225  6  0
225 307   0   0   0   0  0  0
226  17   5   0   0   0  0  0
227 176   0 226 227 228  5  0
228 307   0   0   0   0  0  0
229  17   4   0   0   0  0  0
230 176   0 229 230 231  4  0
231 307   0   0   0   0  0  0
232  17   3   0   0   0  0  0
233 176   0 232 233 234  3  0
234 307   0   0   0   0  0  0
235  17   2   0   0   0  0  0
236 176   0 235 236 237  2  0
237 307   0   0   0   0  0  0
238  17   1   0   0   0  0  0
239 176   0 238 239 240  1  0
240 307   0   0   0   0  0  0
241  17   1   0   0   0  0  0
242 176   0 241 242 243  1  0
243 307   0   0   0   0  0  0
244  17   2   0   0   0  0  0
245 176   0 244 245 246  2  0
246 307   0   0   0   0  0  0
247  17   3   0   0   0  0  0
248 176   0 247 248 249  3  0
249 307   0   0   0   0  0  0
250  17   4   0   0   0  0  0
251 176   0 250 251 252  4  0
252 307   0   0   0   0  0  0
253  17   5   0   0   0  0  0
254 176   0 253 254 255  5  0
255 307   0   0   0   0  0  0
256  17   6   0   0   0  0  0
257 176   0 256 257 258  6  0
258 307   0   0   0   0  0  0
259  17   7   0   0   0  0  0
260 176   0 259 260 261  7  0
261 307   0   0   0   0  0  0
262  17   8   0   0   0  0  0
263 176   0 262 263 264  8  0
264 307   0   0   0   0  0  0
265  17   9   0   0   0  0  0
266 176   0 265 266 267  9  0
267 307   0   0   0   0  0  0
268  17  10   0   0   0  0  0
269 176   0 268 269 270 10  0
270 307   0   0   0   0  0  0
271  17   6   0   0   0  0  0
272 176   0 271 272 273  6  0
273 307   0   0   0   0  0  0
274  17  11   0   0   0  0  0
275 176   0 274 275 276 11  0
276 307   0   0   0   0  0  0
277  17  12   0   0   0  0  0
278 176   0 277 278 279 12  0
279 307   0   0   0   0  0  0
280  17  13   0   0   0  0  0
281 176   0 280 281 282 13  0
282 307   0   0   0   0  0  0
283  17  14   0   0   0  0  0
284 176   0 283 284 285 14  0
285 307   0   0   0   0  0  0
286  17   1   0   0   0  0  0
287 176   0 286 287 288  1  0
288 307   0   0   0   0  0  0
289  17  15   0   0   0  0  0
290 176   0 289 290 291 15  0
291 307   0   0   0   0  0  0
292  17  16   0   0   0  0  0
293 176   0 292 293 294 16  0
294 307   0   0   0   0  0  0
295  17  13   0   0   0  0  0
296 176   0 295 296 297 13  0
297 307   0   0   0   0  0  0
298  17  17   0   0   0  0  0
299 176   0 298 299 300 17  0
300 307   0   0   0   0  0  0

# Format of RF events:
# id ampl. mag_id phase_id time_shape_id center delay freqPPm phasePPM freq phase use
# ..   Hz      ..       ..            ..     us    us     ppm  rad/MHz   Hz   rad  ..
# Field "use" is the initial of: excitation refocusing inversion saturation preparation other undefined
[RF]
1      555.556 1 2 3 25 100 0 0 0 0 u
2      555.556 1 2 3 25 100 0 0 0 2.04204 u
3      555.556 1 2 3 25 100 0 0 0 6.12611 u
4      555.556 1 2 3 25 100 0 0 0 5.96903 u
5      555.556 1 2 3 25 100 0 0 0 1.5708 u
6      555.556 1 2 3 25 100 0 0 0 5.49779 u
7      555.556 1 2 3 25 100 0 0 0 5.18363 u
8      555.556 1 2 3 25 100 0 0 0 0.628319 u
9      555.556 1 2 3 25 100 0 0 0 4.39823 u
10      555.556 1 2 3 25 100 0 0 0 3.92699 u
11      555.556 1 2 3 25 100 0 0 0 2.82743 u
12      555.556 1 2 3 25 100 0 0 0 2.19911 u
13      555.556 1 2 3 25 100 0 0 0 3.61283 u
14      555.556 1 2 3 25 100 0 0 0 0.785398 u
15      555.556 1 2 3 25 100 0 0 0 1.25664 u
16      555.556 1 2 3 25 100 0 0 0 4.55531 u
17      555.556 1 2 3 25 100 0 0 0 4.71239 u
18      555.556 1 2 3 25 100 0 0 0 0.471239 u
19      555.556 1 2 3 25 100 0 0 0 1.41372 u
20      555.556 1 2 3 25 100 0 0 0 3.14159 u
21      555.556 1 2 3 25 100 0 0 0 5.34071 u
22      555.556 1 2 3 25 100 0 0 0 2.35619 u
23      555.556 1 2 3 25 100 0 0 0 3.76991 u
24      555.556 1 2 3 25 100 0 0 0 2.98451 u

# Format of arbitrary gradients:
#   time_shape_id of 0 means default timing (stepping with grad_raster starting at 1/2 of grad_raster)
# id amplitude first last amp_shape_id time_shape_id delay
# ..      Hz/m  Hz/m Hz/m        ..         ..          us
[GRADIENTS]
1       697336            0            0 4 5 0
2      90282.8            0            0 4 5 0
3      -937477           -0           -0 4 5 0
4       690978            0            0 4 5 0
5       131974            0            0 4 5 0
6      -937242           -0           -0 4 5 0
7       682134            0            0 4 5 0
8       173209            0            0 4 5 0
9      -937008           -0           -0 4 5 0
10       670835            0            0 4 5 0
11       213840            0            0 4 5 0
12      -936773           -0           -0 4 5 0
13       657123            0            0 4 5 0
14       253722            0            0 4 5 0
15      -936539           -0           -0 4 5 0
16       641050            0            0 4 5 0
17       292712            0            0 4 5 0
18      -936305           -0           -0 4 5 0
19       622672            0            0 4 5 0
20       330670            0            0 4 5 0
21      -936070           -0           -0 4 5 0
22       602058            0            0 4 5 0
23       367462            0            0 4 5 0
24      -935836           -0           -0 4 5 0
25       579282            0            0 4 5 0
26       402956            0            0 4 5 0
27      -935601           -0           -0 4 5 0
28       554426            0            0 4 5 0
29       437025            0            0 4 5 0
30      -935367           -0           -0 4 5 0
31       527580            0            0 4 5 0
32       469550            0            0 4 5 0
33      -935133           -0           -0 4 5 0
34       498840            0            0 4 5 0
35       500414            0            0 4 5 0
36      -934898           -0           -0 4 5 0
37       468311            0            0 4 5 0
38       529509            0            0 4 5 0
39      -934664           -0           -0 4 5 0
40       436100            0            0 4 5 0
41       556731            0            0 4 5 0
42      -934429           -0           -0 4 5 0
43       402324            0            0 4 5 0
44       581985            0            0 4 5 0
45      -934195           -0           -0 4 5 0
46       367103            0            0 4 5 0
47       605181            0            0 4 5 0
48      -933961           -0           -0 4 5 0
49       330563            0            0 4 5 0
50       626238            0            0 4 5 0
51      -933726           -0           -0 4 5 0
52       292834            0            0 4 5 0
53       645083            0            0 4 5 0
54      -933492           -0           -0 4 5 0
55       254051            0            0 4 5 0
56       661649            0            0 4 5 0
57      -933257           -0           -0 4 5 0
58       214351            0            0 4 5 0
59       675879            0            0 4 5 0
60      -933023           -0           -0 4 5 0
61       173875            0            0 4 5 0
62       687724            0            0 4 5 0
63      -932789           -0           -0 4 5 0
64       132767            0            0 4 5 0
65       697142            0            0 4 5 0
66      -932554           -0           -0 4 5 0
67      91171.8            0            0 4 5 0
68       704101            0            0 4 5 0
69      -932320           -0           -0 4 5 0
70      49236.9            0            0 4 5 0
71       708579            0            0 4 5 0
72      -932085           -0           -0 4 5 0
73      7110.11            0            0 4 5 0
74       710559            0            0 4 5 0
75      -931851           -0           -0 4 5 0
76       -35060           -0           -0 4 5 0
77       710037            0            0 4 5 0
78      -931617           -0           -0 4 5 0
79     -77124.9           -0           -0 4 5 0
80       707015            0            0 4 5 0
81      -931382           -0           -0 4 5 0
82      -118937           -0           -0 4 5 0
83       701505            0            0 4 5 0
84      -931148           -0           -0 4 5 0
85      -160349           -0           -0 4 5 0
86       693527            0            0 4 5 0
87      -930913           -0           -0 4 5 0
88      -201215           -0           -0 4 5 0
89       683111            0            0 4 5 0
90      -930679           -0           -0 4 5 0
91      -241394           -0           -0 4 5 0
92       670293            0            0 4 5 0
93      -930445           -0           -0 4 5 0
94      -280743           -0           -0 4 5 0
95       655121            0            0 4 5 0
96      -930210           -0           -0 4 5 0
97      -319127           -0           -0 4 5 0
98       637647            0            0 4 5 0
99      -929976           -0           -0 4 5 0
100      -356410           -0           -0 4 5 0
101       617935            0            0 4 5 0
102      -929741           -0           -0 4 5 0
103      -392463           -0           -0 4 5 0
104       596054            0            0 4 5 0
105      -929507           -0           -0 4 5 0
106      -427160           -0           -0 4 5 0
107       572082            0            0 4 5 0
108      -929273           -0           -0 4 5 0
109      -460382           -0           -0 4 5 0
110       546102            0            0 4 5 0
111      -929038           -0           -0 4 5 0
112      -492012           -0           -0 4 5 0
113       518207            0            0 4 5 0
114      -928804           -0           -0 4 5 0
115      -521941           -0           -0 4 5 0
116       488495            0            0 4 5 0
117      -928569           -0           -0 4 5 0
118      -550067           -0           -0 4 5 0
119       457069            0            0 4 5 0
120      -928335           -0           -0 4 5 0
121      -576290           -0           -0 4 5 0
122       424040            0            0 4 5 0
123      -928101           -0           -0 4 5 0
124      -600522           -0           -0 4 5 0
125       389523            0            0 4 5 0
126      -927866           -0           -0 4 5 0
127      -622680           -0           -0 4 5 0
128       353639            0            0 4 5 0
129      -927632           -0           -0 4 5 0
130      -642686           -0           -0 4 5 0
131       316512            0            0 4 5 0
132      -927397           -0           -0 4 5 0
133      -660472           -0           -0 4 5 0
134       278273            0            0 4 5 0
135      -927163           -0           -0 4 5 0
136      -675979           -0           -0 4 5 0
137       239054            0            0 4 5 0
138      -926929           -0           -0 4 5 0
139      -689153           -0           -0 4 5 0
140       198991            0            0 4 5 0
141      -926694           -0           -0 4 5 0
142      -699949           -0           -0 4 5 0
143       158222            0            0 4 5 0
144      -926460           -0           -0 4 5 0
145      -708332           -0           -0 4 5 0
146       116890            0            0 4 5 0
147      -926225           -0           -0 4 5 0
148      -714273           -0           -0 4 5 0
149      75137.1            0            0 4 5 0
150      -925991           -0           -0 4 5 0
151      -717753           -0           -0 4 5 0
152      33107.2            0            0 4 5 0
153      -925757           -0           -0 4 5 0
154      -718761           -0           -0 4 5 0
155     -9054.37           -0           -0 4 5 0
156      -925522           -0           -0 4 5 0
157      -717295           -0           -0 4 5 0
158     -51202.6           -0           -0 4 5 0
159      -925288           -0           -0 4 5 0
160      -713360           -0           -0 4 5 0
161     -93192.3           -0           -0 4 5 0
162      -925053           -0           -0 4 5 0
163      -706971           -0           -0 4 5 0
164      -134879           -0           -0 4 5 0
165      -924819           -0           -0 4 5 0
166      -698152           -0           -0 4 5 0
167      -176121           -0           -0 4 5 0
168      -924585           -0           -0 4 5 0
169      -686933           -0           -0 4 5 0
170      -216775           -0           -0 4 5 0
171      -924350           -0           -0 4 5 0
172      -673353           -0           -0 4 5 0
173      -256702           -0           -0 4 5 0
174      -924116           -0           -0 4 5 0
175      -657462           -0           -0 4 5 0
176      -295767           -0           -0 4 5 0
177      -923881           -0           -0 4 5 0
178      -639312           -0           -0 4 5 0
179      -333836           -0           -0 4 5 0
180      -923647           -0           -0 4 5 0
181      -618969           -0           -0 4 5 0
182      -370779           -0           -0 4 5 0
183      -923413           -0           -0 4 5 0
184      -596502           -0           -0 4 5 0
185      -406470           -0           -0 4 5 0
186      -923178           -0           -0 4 5 0
187      -571989           -0           -0 4 5 0
188      -440788           -0           -0 4 5 0
189      -922944           -0           -0 4 5 0
190      -545514           -0           -0 4 5 0
191      -473617           -0           -0 4 5 0
192      -922709           -0           -0 4 5 0
193      -517168           -0           -0 4 5 0
194      -504844           -0           -0 4 5 0
195      -922475           -0           -0 4 5 0
196      -487049           -0           -0 4 5 0
197      -534365           -0           -0 4 5 0
198      -922241           -0           -0 4 5 0
199      -455260           -0           -0 4 5 0
200      -562080           -0           -0 4 5 0
201      -922006           -0           -0 4 5 0
202      -421910           -0           -0 4 5 0
203      -587894           -0           -0 4 5 0
204      -921772           -0           -0 4 5 0
205      -387112           -0           -0 4 5 0
206      -611722           -0           -0 4 5 0
207      -921537           -0           -0 4 5 0
208      -350986           -0           -0 4 5 0
209      -633483           -0           -0 4 5 0
210      -921303           -0           -0 4 5 0
211      -313654           -0           -0 4 5 0
212      -653104           -0           -0 4 5 0
213      -921069           -0           -0 4 5 0
214      -275244           -0           -0 4 5 0
215      -670519           -0           -0 4 5 0
216      -920834           -0           -0 4 5 0
217      -235886           -0           -0 4 5 0
218      -685671           -0           -0 4 5 0
219      -920600           -0           -0 4 5 0
220      -195713           -0           -0 4 5 0
221      -698509           -0           -0 4 5 0
222      -920365           -0           -0 4 5 0
223      -154863           -0           -0 4 5 0
224      -708990           -0           -0 4 5 0
225      -920131           -0           -0 4 5 0
226      -113472           -0           -0 4 5 0
227      -717081           -0           -0 4 5 0
228      -919897           -0           -0 4 5 0
229     -71681.4           -0           -0 4 5 0
230      -722755           -0           -0 4 5 0
231      -919662           -0           -0 4 5 0
232     -29631.9           -0           -0 4 5 0
233      -725993           -0           -0 4 5 0
234      -919428           -0           -0 4 5 0
235      12534.7            0            0 4 5 0
236      -726786           -0           -0 4 5 0
237      -919193           -0           -0 4 5 0
238      54676.3            0            0 4 5 0
239      -725132           -0           -0 4 5 0
240      -918959           -0           -0 4 5 0
241      96651.1            0            0 4 5 0
242      -721037           -0           -0 4 5 0
243      -918725           -0           -0 4 5 0
244       138318            0            0 4 5 0
245      -714517           -0           -0 4 5 0
246      -918490           -0           -0 4 5 0
247       179537            0            0 4 5 0
248      -705594           -0           -0 4 5 0
249      -918256           -0           -0 4 5 0
250       220171            0            0 4 5 0
251      -694300           -0           -0 4 5 0
252      -918021           -0           -0 4 5 0
253       260083            0            0 4 5 0
254      -680672           -0           -0 4 5 0
255      -917787           -0           -0 4 5 0
256       299139            0            0 4 5 0
257      -664758           -0           -0 4 5 0
258      -917553           -0           -0 4 5 0
259       337210            0            0 4 5 0
260      -646612           -0           -0 4 5 0
261      -917318           -0           -0 4 5 0
262       374168            0            0 4 5 0
263      -626296           -0           -0 4 5 0
264      -917084           -0           -0 4 5 0
265       409890            0            0 4 5 0
266      -603878           -0           -0 4 5 0
267      -916849           -0           -0 4 5 0
268       444258            0            0 4 5 0
269      -579433           -0           -0 4 5 0
270      -916615           -0           -0 4 5 0
271       477157            0            0 4 5 0
272      -553045           -0           -0 4 5 0
273      -916381           -0           -0 4 5 0
274       508478            0            0 4 5 0
275      -524802           -0           -0 4 5 0
276      -916146           -0           -0 4 5 0
277       538117            0            0 4 5 0
278      -494800           -0           -0 4 5 0
279      -915912           -0           -0 4 5 0
280       565977            0            0 4 5 0
281      -463137           -0           -0 4 5 0
282      -915678           -0           -0 4 5 0
283       591965            0            0 4 5 0
284      -429922           -0           -0 4 5 0
285      -915443           -0           -0 4 5 0
286       615996            0            0 4 5 0
287      -395264           -0           -0 4 5 0
288      -915209           -0           -0 4 5 0
289       637990            0            0 4 5 0
290      -359279           -0           -0 4 5 0
291      -914974           -0           -0 4 5 0
292       657877            0            0 4 5 0
293      -322087           -0           -0 4 5 0
294      -914740           -0           -0 4 5 0
295       675589            0            0 4 5 0
296      -283813           -0           -0 4 5 0
297      -914506           -0           -0 4 5 0
298       691071            0            0 4 5 0
299      -244583           -0           -0 4 5 0
300      -914271           -0           -0 4 5 0

# Format of ADC events:
# id num dwell delay freqPPM phasePPM freq phase phase_id
# ..  ..    ns    us     ppm  rad/MHz   Hz   rad       ..
[ADC]
1 79 10000 10 0 0 0 0 0
2 79 10000 10 0 0 0 2.04204 0
3 79 10000 10 0 0 0 6.12611 0
4 79 10000 10 0 0 0 5.96903 0
5 79 10000 10 0 0 0 1.5708 0
6 79 10000 10 0 0 0 5.49779 0
7 79 10000 10 0 0 0 5.18363 0
8 79 10000 10 0 0 0 0.628319 0
9 79 10000 10 0 0 0 4.39823 0
10 79 10000 10 0 0 0 3.92699 0
11 79 10000 10 0 0 0 2.82743 0
12 79 10000 10 0 0 0 2.19911 0
13 79 10000 10 0 0 0 3.61283 0
14 79 10000 10 0 0 0 0.785398 0
15 79 10000 10 0 0 0 1.25664 0
16 79 10000 10 0 0 0 4.55531 0
17 79 10000 10 0 0 0 4.71239 0
18 79 10000 10 0 0 0 0.471239 0
19 79 10000 10 0 0 0 1.41372 0
20 79 10000 10 0 0 0 3.14159 0
21 79 10000 10 0 0 0 5.34071 0
22 79 10000 10 0 0 0 2.35619 0
23 79 10000 10 0 0 0 3.76991 0
24 79 10000 10 0 0 0 2.98451 0

# Sequence Shapes
[SHAPES]

shape_id 1
num_samples 2
1
1

shape_id 2
num_samples 2
0
0

shape_id 3
num_samples 2
0
50

shape_id 4
num_samples 6
0
0.333333333
0.333333333
1
1
0

shape_id 5
num_samples 6
0
30
79
90
160
176


[SIGNATURE]
# This is the hash of the Pulseq file, calculated right before the [SIGNATURE] section was added
# It can be reproduced/verified with md5sum if the file trimmed to the position right above [SIGNATURE]
# The new line character preceding [SIGNATURE] BELONGS to the signature (and needs to be stripped away for recalculating/verification)
Type md5
Hash 2f854d6e413d56f74a0aacdfbd16c149
