# Pulseq sequence file
# Created by PyPulseq

[VERSION]
major 1
minor 5
revision 0

[DEFINITIONS]
AdcRasterTime 1e-07 
BlockDurationRaster 1e-05 
FOV 0.256 0.256 0.003 
GradientRasterTime 1e-05 
RadiofrequencyRasterTime 1e-06 
TotalDuration 0.0141 

# Format of blocks:
# NUM DUR RF  GX  GY  GZ  ADC  EXT
[BLOCKS]
1 200   0   0   0   0  0  1
2 317   1   0   0   1  0  0
3  10   0   0   0   0  0  2
4 100   0   2   3   4  0  0
5  82   0   0   0   0  0  0
6 324   0   5   0   0  1  0
7 377   0   6   7   8  0  0

# Format of RF events:
# id ampl. mag_id phase_id time_shape_id center delay freqPPm phasePPM freq phase use
# ..   Hz      ..       ..            ..     us    us     ppm  rad/MHz   Hz   rad  ..
# Field "use" is the initial of: excitation refocusing inversion saturation preparation other undefined
[RF]
1      147.372 1 2 0 512 100 0 0 0 0 u

# Format of trapezoid gradients:
# id amplitude rise flat fall delay
# ..      Hz/m   us   us   us    us
[TRAP]
 1       444444  70 3000  70  30
 2      -147978 150  700 150   0
 3      -145349 140  720 140   0
 4      -842250 190  620 190   0
 5        78125  20 3200  20   0
 6  1.19048e+06 190  230 190   0
 7       145349 140  720 140   0
 8  1.19048e+06 190  930 190   0

# Format of ADC events:
# id num dwell delay freqPPM phasePPM freq phase phase_id
# ..  ..    ns    us     ppm  rad/MHz   Hz   rad       ..
[ADC]
1 64 50000 20 0 0 0 0 0

# Format of extension lists:
# id type ref next_id
# next_id of 0 terminates the list
# Extension list is followed by extension specifications
[EXTENSIONS]
1 1 1 0
2 1 2 0

# Extension specification for digital output and input triggers:
# id type channel delay (us) duration (us)
extension TRIGGERS 1
1 2 2 0 2000
2 1 2 0 100

# Sequence Shapes
[SHAPES]

shape_id 1
num_samples 1024
3e-10
0.0004923667
0.0009918443
0.001498331
0.002011718
0.002531896
0.003058747
0.003592152
0.004131985
0.004678118
0.005230417
0.005788742
0.006352952
0.006922898
0.007498431
0.008079392
0.008665621
0.009256954
0.009853221
0.01045425
0.01105986
0.01166986
0.01228408
0.01290231
0.01352437
0.01415006
0.01477916
0.01541147
0.01604677
0.01668486
0.0173255
0.01796848
0.01861355
0.0192605
0.01990907
0.02055904
0.02121014
0.02186214
0.02251478
0.0231678
0.02382095
0.02447394
0.02512654
0.02577844
0.02642939
0.02707911
0.02772731
0.0283737
0.02901801
0.02965993
0.03029918
0.03093545
0.03156846
0.03219789
0.03282343
0.0334448
0.03406166
0.03467371
0.03528064
0.03588212
0.03647785
0.03706749
0.03765073
0.03822724
0.0387967
0.03935877
0.03991313
0.04045945
0.0409974
0.04152664
0.04204684
0.04255767
0.04305879
0.04354987
0.04403057
0.04450057
0.0449595
0.04540706
0.04584289
0.04626667
0.04667805
0.04707671
0.04746232
0.04783453
0.04819301
0.04853745
0.0488675
0.04918283
0.04948314
0.04976808
0.05003734
0.0502906
0.05052754
0.05074784
0.05095119
0.05113729
0.05130581
0.05145648
0.05158897
0.05170299
0.05179824
0.05187445
0.05193131
0.05196856
0.0519859
0.05198308
0.05195981
0.05191584
0.05185091
0.05176475
0.05165712
0.05152778
0.05137649
0.05120301
0.05100713
0.05078861
0.05054725
0.05028284
0.04999516
0.04968404
0.04934928
0.0489907
0.04860813
0.0482014
0.04777035
0.04731483
0.04683469
0.04632981
0.04580005
0.04524529
0.04466543
0.04406035
0.04342998
0.04277421
0.04209298
0.04138621
0.04065386
0.03989587
0.03911221
0.03830284
0.03746775
0.03660693
0.03572037
0.03480809
0.03387011
0.03290646
0.03191719
0.03090233
0.02986197
0.02879617
0.02770502
0.02658861
0.02544706
0.02428047
0.02308898
0.02187273
0.02063187
0.01936657
0.018077
0.01676335
0.01542582
0.01406461
0.01267996
0.01127209
0.009841259
0.008387716
0.006911733
0.005413595
0.003893596
0.002352042
0.0007892537
0.0007944384
0.00239869
0.004023147
0.00566744
0.007331188
0.009013999
0.01071547
0.01243518
0.01417271
0.0159276
0.01769941
0.01948768
0.02129191
0.02311164
0.02494634
0.02679551
0.02865862
0.03053514
0.03242451
0.03432618
0.03623956
0.03816409
0.04009915
0.04204414
0.04399846
0.04596145
0.04793249
0.04991092
0.05189607
0.05388729
0.05588387
0.05788513
0.05989036
0.06189884
0.06390986
0.06592267
0.06793653
0.06995068
0.07196437
0.07397681
0.07598722
0.07799482
0.0799988
0.08199836
0.08399266
0.0859809
0.08796225
0.08993583
0.09190084
0.09385638
0.09580163
0.09773569
0.09965769
0.1015668
0.103462
0.1053425
0.1072074
0.1090557
0.1108866
0.1126991
0.1144924
0.1162655
0.1180174
0.1197472
0.1214541
0.123137
0.124795
0.1264272
0.1280326
0.1296102
0.1311592
0.1326786
0.1341673
0.1356245
0.1370492
0.1384405
0.1397973
0.1411188
0.1424039
0.1436518
0.1448614
0.1460319
0.1471622
0.1482514
0.1492986
0.1503029
0.1512633
0.1521788
0.1530486
0.1538716
0.1546471
0.1553741
0.1560516
0.1566788
0.1572547
0.1577786
0.1582494
0.1586663
0.1590285
0.1593351
0.1595851
0.1597779
0.1599125
0.1599881
0.160004
0.1599592
0.159853
0.1596847
0.1594533
0.1591582
0.1587987
0.1583739
0.1578832
0.1573258
0.156701
0.1560082
0.1552466
0.1544156
0.1535146
0.1525429
0.1514999
0.1503849
0.1491975
0.147937
0.1466029
0.1451947
0.1437117
0.1421536
0.1405198
0.1388098
0.1370233
0.1351596
0.1332186
0.1311997
0.1291025
0.1269268
0.1246721
0.1223381
0.1199247
0.1174313
0.1148579
0.1122041
0.1094698
0.1066547
0.1037587
0.1007816
0.09772321
0.09458352
0.09136241
0.0880598
0.08467564
0.08120992
0.07766262
0.07403377
0.07032342
0.06653163
0.06265851
0.05870414
0.05466868
0.05055228
0.04635514
0.04207745
0.03771945
0.0332814
0.02876357
0.02416627
0.01948983
0.01473459
0.009900936
0.004989265
9.999999e-10
0.005066412
0.0102095
0.01542876
0.02072367
0.0260937
0.03153827
0.03705679
0.04264864
0.04831319
0.05404976
0.05985767
0.0657362
0.07168463
0.07770219
0.08378809
0.08994153
0.09616169
0.1024477
0.1087987
0.1152138
0.121692
0.1282325
0.1348342
0.1414961
0.1482174
0.1549968
0.1618334
0.1687261
0.1756738
0.1826754
0.1897297
0.1968356
0.2039919
0.2111973
0.2184509
0.2257511
0.2330968
0.2404867
0.2479195
0.255394
0.2629087
0.2704624
0.2780536
0.285681
0.2933431
0.3010386
0.3087661
0.3165241
0.324311
0.3321255
0.3399661
0.3478312
0.3557194
0.363629
0.3715586
0.3795065
0.3874713
0.3954514
0.403445
0.4114507
0.4194668
0.4274918
0.4355238
0.4435615
0.4516029
0.4596466
0.4676909
0.4757339
0.4837743
0.49181
0.4998396
0.5078613
0.5158734
0.5238742
0.531862
0.539835
0.5477916
0.5557299
0.5636484
0.5715453
0.5794188
0.5872672
0.5950888
0.602882
0.6106448
0.6183757
0.6260729
0.6337346
0.6413592
0.6489451
0.6564903
0.6639933
0.6714524
0.6788658
0.6862319
0.693549
0.7008154
0.7080295
0.7151896
0.7222941
0.7293412
0.7363295
0.7432572
0.7501229
0.7569247
0.7636613
0.770331
0.7769323
0.7834636
0.7899233
0.79631
0.8026222
0.8088583
0.815017
0.8210966
0.8270959
0.8330134
0.8388476
0.8445971
0.8502607
0.8558369
0.8613245
0.866722
0.8720282
0.877242
0.8823618
0.8873867
0.8923152
0.8971463
0.9018787
0.9065115
0.9110433
0.9154733
0.9198
0.9240228
0.9281403
0.9321516
0.936056
0.9398523
0.9435395
0.9471169
0.9505835
0.9539384
0.9571809
0.9603103
0.9633257
0.9662263
0.9690114
0.9716804
0.9742326
0.9766675
0.9789843
0.9811825
0.9832616
0.9852212
0.9870604
0.9887792
0.9903771
0.9918536
0.9932082
0.9944408
0.995551
0.9965385
0.9974031
0.9981445
0.9987628
0.9992576
0.9996288
0.9998762
1
1
0.9998762
0.9996288
0.9992576
0.9987628
0.9981445
0.9974031
0.9965385
0.995551
0.9944408
0.9932082
0.9918536
0.9903771
0.9887792
0.9870604
0.9852212
0.9832616
0.9811825
0.9789843
0.9766675
0.9742326
0.9716804
0.9690114
0.9662263
0.9633257
0.9603103
0.9571809
0.9539384
0.9505835
0.9471169
0.9435395
0.9398523
0.936056
0.9321516
0.9281403
0.9240228
0.9198
0.9154733
0.9110433
0.9065115
0.9018787
0.8971463
0.8923152
0.8873867
0.8823618
0.877242
0.8720282
0.866722
0.8613245
0.8558369
0.8502607
0.8445971
0.8388476
0.8330134
0.8270959
0.8210966
0.815017
0.8088583
0.8026222
0.79631
0.7899233
0.7834636
0.7769323
0.770331
0.7636613
0.7569247
0.7501229
0.7432572
0.7363295
0.7293412
0.7222941
0.7151896
0.7080295
0.7008154
0.693549
0.6862319
0.6788658
0.6714524
0.6639933
0.6564903
0.6489451
0.6413592
0.6337346
0.6260729
0.6183757
0.6106448
0.602882
0.5950888
0.5872672
0.5794188
0.5715453
0.5636484
0.5557299
0.5477916
0.539835
0.531862
0.5238742
0.5158734
0.5078613
0.4998396
0.49181
0.4837743
0.4757339
0.4676909
0.4596466
0.4516029
0.4435615
0.4355238
0.4274918
0.4194668
0.4114507
0.403445
0.3954514
0.3874713
0.3795065
0.3715586
0.363629
0.3557194
0.3478312
0.3399661
0.3321255
0.324311
0.3165241
0.3087661
0.3010386
0.2933431
0.285681
0.2780536
0.2704624
0.2629087
0.255394
0.2479195
0.2404867
0.2330968
0.2257511
0.2184509
0.2111973
0.2039919
0.1968356
0.1897297
0.1826754
0.1756738
0.1687261
0.1618334
0.1549968
0.1482174
0.1414961
0.1348342
0.1282325
0.121692
0.1152138
0.1087987
0.1024477
0.09616169
0.08994153
0.08378809
0.07770219
0.07168463
0.0657362
0.05985767
0.05404976
0.04831319
0.04264864
0.03705679
0.03153827
0.0260937
0.02072367
0.01542876
0.0102095
0.005066412
9.999999e-10
0.004989265
0.009900936
0.01473459
0.01948983
0.02416627
0.02876357
0.0332814
0.03771945
0.04207745
0.04635514
0.05055228
0.05466868
0.05870414
0.06265851
0.06653163
0.07032342
0.07403377
0.07766262
0.08120992
0.08467564
0.0880598
0.09136241
0.09458352
0.09772321
0.1007816
0.1037587
0.1066547
0.1094698
0.1122041
0.1148579
0.1174313
0.1199247
0.1223381
0.1246721
0.1269268
0.1291025
0.1311997
0.1332186
0.1351596
0.1370233
0.1388098
0.1405198
0.1421536
0.1437117
0.1451947
0.1466029
0.147937
0.1491975
0.1503849
0.1514999
0.1525429
0.1535146
0.1544156
0.1552466
0.1560082
0.156701
0.1573258
0.1578832
0.1583739
0.1587987
0.1591582
0.1594533
0.1596847
0.159853
0.1599592
0.160004
0.1599881
0.1599125
0.1597779
0.1595851
0.1593351
0.1590285
0.1586663
0.1582494
0.1577786
0.1572547
0.1566788
0.1560516
0.1553741
0.1546471
0.1538716
0.1530486
0.1521788
0.1512633
0.1503029
0.1492986
0.1482514
0.1471622
0.1460319
0.1448614
0.1436518
0.1424039
0.1411188
0.1397973
0.1384405
0.1370492
0.1356245
0.1341673
0.1326786
0.1311592
0.1296102
0.1280326
0.1264272
0.124795
0.123137
0.1214541
0.1197472
0.1180174
0.1162655
0.1144924
0.1126991
0.1108866
0.1090557
0.1072074
0.1053425
0.103462
0.1015668
0.09965769
0.09773569
0.09580163
0.09385638
0.09190084
0.08993583
0.08796225
0.0859809
0.08399266
0.08199836
0.0799988
0.07799482
0.07598722
0.07397681
0.07196437
0.06995068
0.06793653
0.06592267
0.06390986
0.06189884
0.05989036
0.05788513
0.05588387
0.05388729
0.05189607
0.04991092
0.04793249
0.04596145
0.04399846
0.04204414
0.04009915
0.03816409
0.03623956
0.03432618
0.03242451
0.03053514
0.02865862
0.02679551
0.02494634
0.02311164
0.02129191
0.01948768
0.01769941
0.0159276
0.01417271
0.01243518
0.01071547
0.009013999
0.007331188
0.00566744
0.004023147
0.00239869
0.0007944384
0.0007892537
0.002352042
0.003893596
0.005413595
0.006911733
0.008387716
0.009841259
0.01127209
0.01267996
0.01406461
0.01542582
0.01676335
0.018077
0.01936657
0.02063187
0.02187273
0.02308898
0.02428047
0.02544706
0.02658861
0.02770502
0.02879617
0.02986197
0.03090233
0.03191719
0.03290646
0.03387011
0.03480809
0.03572037
0.03660693
0.03746775
0.03830284
0.03911221
0.03989587
0.04065386
0.04138621
0.04209298
0.04277421
0.04342998
0.04406035
0.04466543
0.04524529
0.04580005
0.04632981
0.04683469
0.04731483
0.04777035
0.0482014
0.04860813
0.0489907
0.04934928
0.04968404
0.04999516
0.05028284
0.05054725
0.05078861
0.05100713
0.05120301
0.05137649
0.05152778
0.05165712
0.05176475
0.05185091
0.05191584
0.05195981
0.05198308
0.0519859
0.05196856
0.05193131
0.05187445
0.05179824
0.05170299
0.05158897
0.05145648
0.05130581
0.05113729
0.05095119
0.05074784
0.05052754
0.0502906
0.05003734
0.04976808
0.04948314
0.04918283
0.0488675
0.04853745
0.04819301
0.04783453
0.04746232
0.04707671
0.04667805
0.04626667
0.04584289
0.04540706
0.0449595
0.04450057
0.04403057
0.04354987
0.04305879
0.04255767
0.04204684
0.04152664
0.0409974
0.04045945
0.03991313
0.03935877
0.0387967
0.03822724
0.03765073
0.03706749
0.03647785
0.03588212
0.03528064
0.03467371
0.03406166
0.0334448
0.03282343
0.03219789
0.03156846
0.03093545
0.03029918
0.02965993
0.02901801
0.0283737
0.02772731
0.02707911
0.02642939
0.02577844
0.02512654
0.02447394
0.02382095
0.0231678
0.02251478
0.02186214
0.02121014
0.02055904
0.01990907
0.0192605
0.01861355
0.01796848
0.0173255
0.01668486
0.01604677
0.01541147
0.01477916
0.01415006
0.01352437
0.01290231
0.01228408
0.01166986
0.01105986
0.01045425
0.009853221
0.009256954
0.008665621
0.008079392
0.007498431
0.006922898
0.006352952
0.005788742
0.005230417
0.004678118
0.004131985
0.003592152
0.003058747
0.002531896
0.002011718
0.001498331
0.0009918443
0.0004923667
3e-10

shape_id 2
num_samples 1024
0
0
169
0.6478898
0
0
167
-0.6478898
0
0
339
0.6478898
0
0
167
-0.6478898
0
0
168


[SIGNATURE]
# This is the hash of the Pulseq file, calculated right before the [SIGNATURE] section was added
# It can be reproduced/verified with md5sum if the file trimmed to the position right above [SIGNATURE]
# The new line character preceding [SIGNATURE] BELONGS to the signature (and needs to be stripped away for recalculating/verification)
Type md5
Hash 32edd02a94eb3cf60cf19c5a14175249
