# Pulseq sequence file
# Created by PyPulseq

[VERSION]
major 1
minor 5
revision 0

[DEFINITIONS]
2D 2D 
AdcRasterTime 1e-07 
BlockDurationRaster 1e-05 
FOV 0.256 0.256 0.256 
GradientRasterTime 1e-05 
Name UTE_v1.2.1 
RadiofrequencyRasterTime 1e-06 
SGPoints 0 
TR 5 
TotalDuration 0.01 
adc_dead_time 1e-05 
alpha 10 
dwell 1e-05 
matrix 128 128 
max_grad 1192128 
max_slew 7.66368e+09 
nDummy 100 
nProj 2 
nSample 79 
nSegment 1 
reord_traj standard 
rf_dead_time 0.0001 
rf_len 0.0005 
rf_ringdown_time 2e-05 
rf_spoiling_inc 117 
rise_time 0.0003 
ro_os 1 
ro_spoil 3 
version_sequence v1.2.1 

# Format of blocks:
# NUM DUR RF  GX  GY  GZ  ADC  EXT
[BLOCKS]
1  62   1   0   0   0  0  0
2 176   0   1   2   2  1  0
3 262   0   0   0   0  0  0
4  62   2   0   0   0  0  0
5 176   0   1   3   3  2  0
6 262   0   0   0   0  0  0

# Format of RF events:
# id ampl. mag_id phase_id time_shape_id center delay freqPPm phasePPM freq phase use
# ..   Hz      ..       ..            ..     us    us     ppm  rad/MHz   Hz   rad  ..
# Field "use" is the initial of: excitation refocusing inversion saturation preparation other undefined
[RF]
1      222.211 1 2 0 250 100 0 0 0 0 u
2      222.211 1 2 0 250 100 0 0 0 2.04204 u

# Format of arbitrary gradients:
#   time_shape_id of 0 means default timing (stepping with grad_raster starting at 1/2 of grad_raster)
# id amplitude first last amp_shape_id time_shape_id delay
# ..      Hz/m  Hz/m Hz/m        ..         ..          us
[GRADIENTS]
1  1.17188e+06            0            0 3 4 0
2            0            0            0 5 4 0
3 -2.87027e-10           -0           -0 3 4 0

# Format of ADC events:
# id num dwell delay freqPPM phasePPM freq phase phase_id
# ..  ..    ns    us     ppm  rad/MHz   Hz   rad       ..
[ADC]
1 79 10000 10 0 0 0 0 0
2 79 10000 10 0 0 0 2.04204 0

# Sequence Shapes
[SHAPES]

shape_id 1
num_samples 500
3.66711565e-06
4.05331177e-06
4.47837826e-06
4.9460317e-06
5.46032355e-06
6.02566829e-06
6.64687364e-06
7.3291732e-06
8.07826148e-06
8.90033162e-06
9.80211583e-06
1.07909289e-05
1.18747149e-05
1.30620973e-05
1.43624323e-05
1.57858669e-05
1.73433998e-05
1.9046948e-05
2.09094166e-05
2.29447746e-05
2.51681351e-05
2.75958411e-05
3.02455576e-05
3.31363688e-05
3.62888825e-05
3.97253409e-05
4.34697389e-05
4.75479493e-05
5.19878562e-05
5.68194973e-05
6.2075214e-05
6.7789811e-05
7.40007261e-05
8.07482091e-05
8.80755119e-05
9.602909e-05
0.000104658814
0.000114018197
0.000124164626
0.00013515962
0.000147069087
0.000159963609
0.000173918728
0.000189015259
0.000205339614
0.000222984141
0.000242047484
0.000262634955
0.000284858932
0.00030883927
0.000334703729
0.000362588433
0.000392638336
0.000425007716
0.000459860692
0.000497371759
0.000537726347
0.000581121401
0.000627765989
0.000677881927
0.000731704437
0.000789482816
0.000851481142
0.000917979
0.000989272231
0.00106567371
0.00114751413
0.00123514287
0.00132892878
0.00142926111
0.00153655039
0.00165122935
0.00177375385
0.00190460386
0.00204428448
0.00219332688
0.0023522894
0.00252175855
0.00270235009
0.00289471013
0.0030995162
0.00331747837
0.00354934037
0.00379588073
0.00405791389
0.00433629136
0.00463190287
0.00494567749
0.00527858477
0.00563163589
0.00600588477
0.00640242918
0.00682241181
0.00726702138
0.00773749364
0.00823511241
0.00876121057
0.00931717097
0.00990442736
0.0105244652
0.0111788226
0.0118690907
0.0125969149
0.0133639949
0.0141720856
0.0150229974
0.0159185965
0.0168608056
0.0178516032
0.0188930246
0.0199871611
0.0211361605
0.0223422261
0.0236076167
0.0249346461
0.0263256821
0.0277831457
0.0293095101
0.0309072996
0.0325790881
0.0343274977
0.0361551968
0.0380648981
0.0400593569
0.0421413686
0.0443137657
0.0465794159
0.0489412187
0.0514021022
0.0539650199
0.0566329472
0.059408877
0.0622958167
0.0652967828
0.0684147972
0.0716528822
0.0750140552
0.0785013243
0.0821176822
0.0858661008
0.0897495255
0.0937708688
0.0979330046
0.102238761
0.106690914
0.111292181
0.116045213
0.120952589
0.126016806
0.131240273
0.136625304
0.14217411
0.14788879
0.153771324
0.159823564
0.166047227
0.172443887
0.179014965
0.185761725
0.192685259
0.199786485
0.207066137
0.214524756
0.222162683
0.229980051
0.237976779
0.246152559
0.254506859
0.263038903
0.271747676
0.28063191
0.289690082
0.298920403
0.30832082
0.317889004
0.327622348
0.337517963
0.347572674
0.357783013
0.368145223
0.378655249
0.38930874
0.400101045
0.411027214
0.422081997
0.433259845
0.444554909
0.455961046
0.467471816
0.479080488
0.490780042
0.502563176
0.514422308
0.526349583
0.53833688
0.550375816
0.562457759
0.57457383
0.586714917
0.598871684
0.611034579
0.623193846
0.63533954
0.647461535
0.659549538
0.671593105
0.68358165
0.695504467
0.707350738
0.719109553
0.730769924
0.742320803
0.753751099
0.765049692
0.776205456
0.787207271
0.798044048
0.80870474
0.819178365
0.829454026
0.839520924
0.849368381
0.858985859
0.868362978
0.877489531
0.886355508
0.894951112
0.903266776
0.91129318
0.919021272
0.926442281
0.933547737
0.940329484
0.946779697
0.952890899
0.958655971
0.96406817
0.969121138
0.973808921
0.978125971
0.982067168
0.985627821
0.988803683
0.991590954
0.993986297
0.995986836
0.997590165
0.998794356
0.999597957
1
1
0.999597957
0.998794356
0.997590165
0.995986836
0.993986297
0.991590954
0.988803683
0.985627821
0.982067168
0.978125971
0.973808921
0.969121138
0.96406817
0.958655971
0.952890899
0.946779697
0.940329484
0.933547737
0.926442281
0.919021272
0.91129318
0.903266776
0.894951112
0.886355508
0.877489531
0.868362978
0.858985859
0.849368381
0.839520924
0.829454026
0.819178365
0.80870474
0.798044048
0.787207271
0.776205456
0.765049692
0.753751099
0.742320803
0.730769924
0.719109553
0.707350738
0.695504467
0.68358165
0.671593105
0.659549538
0.647461535
0.63533954
0.623193846
0.611034579
0.598871684
0.586714917
0.57457383
0.562457759
0.550375816
0.53833688
0.526349583
0.514422308
0.502563176
0.490780042
0.479080488
0.467471816
0.455961046
0.444554909
0.433259845
0.422081997
0.411027214
0.400101045
0.38930874
0.378655249
0.368145223
0.357783013
0.347572674
0.337517963
0.327622348
0.317889004
0.30832082
0.298920403
0.289690082
0.28063191
0.271747676
0.263038903
0.254506859
0.246152559
0.237976779
0.229980051
0.222162683
0.214524756
0.207066137
0.199786485
0.192685259
0.185761725
0.179014965
0.172443887
0.166047227
0.159823564
0.153771324
0.14788879
0.14217411
0.136625304
0.131240273
0.126016806
0.120952589
0.116045213
0.111292181
0.106690914
0.102238761
0.0979330046
0.0937708688
0.0897495255
0.0858661008
0.0821176822
0.0785013243
0.0750140552
0.0716528822
0.0684147972
0.0652967828
0.0622958167
0.059408877
0.0566329472
0.0539650199
0.0514021022
0.0489412187
0.0465794159
0.0443137657
0.0421413686
0.0400593569
0.0380648981
0.0361551968
0.0343274977
0.0325790881
0.0309072996
0.0293095101
0.0277831457
0.0263256821
0.0249346461
0.0236076167
0.0223422261
0.0211361605
0.0199871611
0.0188930246
0.0178516032
0.0168608056
0.0159185965
0.0150229974
0.0141720856
0.0133639949
0.0125969149
0.0118690907
0.0111788226
0.0105244652
0.00990442736
0.00931717097
0.00876121057
0.00823511241
0.00773749364
0.00726702138
0.00682241181
0.00640242918
0.00600588477
0.00563163589
0.00527858477
0.00494567749
0.00463190287
0.00433629136
0.00405791389
0.00379588073
0.00354934037
0.00331747837
0.0030995162
0.00289471013
0.00270235009
0.00252175855
0.0023522894
0.00219332688
0.00204428448
0.00190460386
0.00177375385
0.00165122935
0.00153655039
0.00142926111
0.00132892878
0.00123514287
0.00114751413
0.00106567371
0.000989272231
0.000917979
0.000851481142
0.000789482816
0.000731704437
0.000677881927
0.000627765989
0.000581121401
0.000537726347
0.000497371759
0.000459860692
0.000425007716
0.000392638336
0.000362588433
0.000334703729
0.00030883927
0.000284858932
0.000262634955
0.000242047484
0.000222984141
0.000205339614
0.000189015259
0.000173918728
0.000159963609
0.000147069087
0.00013515962
0.000124164626
0.000114018197
0.000104658814
9.602909e-05
8.80755119e-05
8.07482091e-05
7.40007261e-05
6.7789811e-05
6.2075214e-05
5.68194973e-05
5.19878562e-05
4.75479493e-05
4.34697389e-05
3.97253409e-05
3.62888825e-05
3.31363688e-05
3.02455576e-05
2.75958411e-05
2.51681351e-05
2.29447746e-05
2.09094166e-05
1.9046948e-05
1.73433998e-05
1.57858669e-05
1.43624323e-05
1.30620973e-05
1.18747149e-05
1.07909289e-05
9.80211583e-06
8.90033162e-06
8.07826148e-06
7.3291732e-06
6.64687364e-06
6.02566829e-06
5.46032355e-06
4.9460317e-06
4.47837826e-06
4.05331177e-06
3.66711565e-06

shape_id 2
num_samples 500
0
0
498

shape_id 3
num_samples 6
0
0.333333333
0.333333333
1
1
0

shape_id 4
num_samples 6
0
30
79
90
160
176

shape_id 5
num_samples 6
0
0
4


[SIGNATURE]
# This is the hash of the Pulseq file, calculated right before the [SIGNATURE] section was added
# It can be reproduced/verified with md5sum if the file trimmed to the position right above [SIGNATURE]
# The new line character preceding [SIGNATURE] BELONGS to the signature (and needs to be stripped away for recalculating/verification)
Type md5
Hash ec04f264b91795047a2f1ce7b0aef356
