# Pulseq sequence file
# Created by PyPulseq

[VERSION]
major 1
minor 5
revision 0

[DEFINITIONS]
AdcRasterTime 1e-07 
BlockDurationRaster 1e-05 
FOV 0.256 0.256 0.003 
GradientRasterTime 1e-05 
RadiofrequencyRasterTime 1e-06 
TotalDuration 0.0282 

# Format of blocks:
# NUM DUR RF  GX  GY  GZ  ADC  EXT
[BLOCKS]
 1 200   0   0   0   0  0  1
 2 317   1   0   0   1  0  0
 3  10   0   0   0   0  0  2
 4 100   0   2   3   4  0  0
 5  82   0   0   0   0  0  0
 6 324   0   5   0   0  1  0
 7 377   0   6   7   8  0  0
 8 200   0   0   0   0  0  1
 9 317   2   0   0   1  0  0
10  10   0   0   0   0  0  2
11 100   0   2   9   4  0  0
12  82   0   0   0   0  0  0
13 324   0   5   0   0  2  0
14 377   0   6  10   8  0  0

# Format of RF events:
# id ampl. mag_id phase_id time_shape_id center delay freqPPm phasePPM freq phase use
# ..   Hz      ..       ..            ..     us    us     ppm  rad/MHz   Hz   rad  ..
# Field "use" is the initial of: excitation refocusing inversion saturation preparation other undefined
[RF]
1      41.0235 1 2 0 1500 100 0 0 0 0 u
2      41.0235 1 2 0 1500 100 0 0 0 2.04204 u

# Format of trapezoid gradients:
# id amplitude rise flat fall delay
# ..      Hz/m   us   us   us    us
[TRAP]
 1       444444  70 3000  70  30
 2      -147978 150  700 150   0
 3      -145349 140  720 140   0
 4      -842250 190  620 190   0
 5        78125  20 3200  20   0
 6  1.19048e+06 190  230 190   0
 7       145349 140  720 140   0
 8  1.19048e+06 190  930 190   0
 9      -140807 140  720 140   0
10       140807 140  720 140   0

# Format of ADC events:
# id num dwell delay freqPPM phasePPM freq phase phase_id
# ..  ..    ns    us     ppm  rad/MHz   Hz   rad       ..
[ADC]
1 64 50000 20 0 0 0 0 0
2 64 50000 20 0 0 0 2.04204 0

# Format of extension lists:
# id type ref next_id
# next_id of 0 terminates the list
# Extension list is followed by extension specifications
[EXTENSIONS]
1 1 1 0
2 1 2 0

# Extension specification for digital output and input triggers:
# id type channel delay (us) duration (us)
extension TRIGGERS 1
1 2 2 0 2000
2 1 2 0 100

# Sequence Shapes
[SHAPES]

shape_id 1
num_samples 3000
0.000333444481
0.00100099515
0.00166941979
0.00233870844
0.0030088511
0.00367983774
0.00435165831
0.00502430274
0.00569776093
0.00637202274
0.00704707803
0.00772291662
0.0083995283
0.00907690284
0.00975503
0.0104338995
0.011113501
0.0117938242
0.0124748588
0.0131565944
0.0138390205
0.0145221268
0.0152059027
0.0158903379
0.0165754219
0.017261144
0.0179474939
0.0186344608
0.0193220342
0.0200102036
0.0206989582
0.0213882874
0.0220781806
0.022768627
0.0234596158
0.0241511364
0.024843178
0.0255357298
0.026228781
0.0269223207
0.0276163381
0.0283108222
0.0290057623
0.0297011474
0.0303969664
0.0310932086
0.0317898628
0.0324869182
0.0331843635
0.0338821879
0.0345803803
0.0352789295
0.0359778244
0.036677054
0.037376607
0.0380764724
0.0387766389
0.0394770953
0.0401778304
0.040878833
0.0415800917
0.0422815954
0.0429833327
0.0436852923
0.0443874629
0.0450898331
0.0457923915
0.0464951268
0.0471980275
0.0479010822
0.0486042796
0.049307608
0.0500110561
0.0507146124
0.0514182652
0.0521220032
0.0528258148
0.0535296884
0.0542336124
0.0549375753
0.0556415654
0.0563455711
0.0570495808
0.0577535828
0.0584575654
0.059161517
0.0598654259
0.0605692803
0.0612730686
0.0619767789
0.0626803995
0.0633839187
0.0640873246
0.0647906054
0.0654937494
0.0661967447
0.0668995795
0.0676022419
0.06830472
0.0690070019
0.0697090759
0.0704109298
0.071112552
0.0718139303
0.0725150528
0.0732159077
0.0739164829
0.0746167664
0.0753167463
0.0760164106
0.0767157471
0.077414744
0.0781133892
0.0788116705
0.0795095761
0.0802070937
0.0809042113
0.0816009169
0.0822971983
0.0829930434
0.0836884401
0.0843833762
0.0850778397
0.0857718183
0.0864653
0.0871582725
0.0878507236
0.0885426413
0.0892340133
0.0899248273
0.0906150713
0.0913047329
0.0919938
0.0926822602
0.0933701015
0.0940573115
0.0947438779
0.0954297886
0.0961150312
0.0967995935
0.0974834632
0.098166628
0.0988490756
0.0995307937
0.10021177
0.100891992
0.101571448
0.102250125
0.102928011
0.103605094
0.10428136
0.104956799
0.105631397
0.106305143
0.106978023
0.107650026
0.108321139
0.10899135
0.109660647
0.110329016
0.110996446
0.111662924
0.112328438
0.112992976
0.113656525
0.114319073
0.114980607
0.115641114
0.116300584
0.116959003
0.117616358
0.118272638
0.11892783
0.119581921
0.1202349
0.120886753
0.121537469
0.122187034
0.122835437
0.123482666
0.124128707
0.124773549
0.125417178
0.126059583
0.126700751
0.12734067
0.127979327
0.128616711
0.129252807
0.129887605
0.130521092
0.131153255
0.131784083
0.132413561
0.13304168
0.133668424
0.134293784
0.134917745
0.135540297
0.136161426
0.136781119
0.137399366
0.138016152
0.138631467
0.139245298
0.139857631
0.140468456
0.141077759
0.141685529
0.142291752
0.142896417
0.143499512
0.144101023
0.14470094
0.145299249
0.145895938
0.146490994
0.147084407
0.147676163
0.14826625
0.148854656
0.149441368
0.150026375
0.150609664
0.151191223
0.15177104
0.152349103
0.152925398
0.153499915
0.154072641
0.154643563
0.155212671
0.15577995
0.15634539
0.156908979
0.157470703
0.158030551
0.158588512
0.159144572
0.15969872
0.160250943
0.16080123
0.161349569
0.161895947
0.162440353
0.162982774
0.163523199
0.164061615
0.164598011
0.165132374
0.165664693
0.166194955
0.166723149
0.167249263
0.167773285
0.168295203
0.168815006
0.16933268
0.169848215
0.170361599
0.170872819
0.171381864
0.171888723
0.172393383
0.172895833
0.17339606
0.173894054
0.174389802
0.174883293
0.175374516
0.175863457
0.176350107
0.176834453
0.177316483
0.177796186
0.17827355
0.178748565
0.179221217
0.179691496
0.180159391
0.180624889
0.181087979
0.18154865
0.182006891
0.182462689
0.182916034
0.183366914
0.183815317
0.184261233
0.18470465
0.185145557
0.185583942
0.186019795
0.186453103
0.186883856
0.187312042
0.187737651
0.188160671
0.18858109
0.188998899
0.189414085
0.189826638
0.190236546
0.190643799
0.191048386
0.191450295
0.191849515
0.192246036
0.192639847
0.193030936
0.193419293
0.193804907
0.194187767
0.194567863
0.194945182
0.195319716
0.195691453
0.196060381
0.196426492
0.196789773
0.197150214
0.197507805
0.197862535
0.198214394
0.19856337
0.198909453
0.199252634
0.1995929
0.199930243
0.200264651
0.200596114
0.200924621
0.201250163
0.201572729
0.201892309
0.202208892
0.202522469
0.202833028
0.20314056
0.203445055
0.203746502
0.204044892
0.204340214
0.204632458
0.204921614
0.205207673
0.205490624
0.205770458
0.206047163
0.206320732
0.206591153
0.206858417
0.207122515
0.207383435
0.20764117
0.207895708
0.20814704
0.208395157
0.20864005
0.208881707
0.209120121
0.209355281
0.209587178
0.209815802
0.210041144
0.210263195
0.210481945
0.210697385
0.210909506
0.211118299
0.211323753
0.21152586
0.211724611
0.211919997
0.212112009
0.212300636
0.212485872
0.212667705
0.212846129
0.213021132
0.213192708
0.213360846
0.213525538
0.213686776
0.213844549
0.213998851
0.214149671
0.214297002
0.214440834
0.21458116
0.214717969
0.214851255
0.214981009
0.215107221
0.215229885
0.21534899
0.21546453
0.215576495
0.215684877
0.215789669
0.215890861
0.215988447
0.216082417
0.216172763
0.216259478
0.216342554
0.216421982
0.216497755
0.216569864
0.216638303
0.216703062
0.216764134
0.216821513
0.216875188
0.216925154
0.216971403
0.217013926
0.217052717
0.217087767
0.21711907
0.217146618
0.217170403
0.217190418
0.217206656
0.21721911
0.217227772
0.217232635
0.217233693
0.217230937
0.21722436
0.217213957
0.217199719
0.21718164
0.217159713
0.217133931
0.217104287
0.217070775
0.217033387
0.216992117
0.216946958
0.216897904
0.216844948
0.216788083
0.216727304
0.216662603
0.216593974
0.21652141
0.216444907
0.216364456
0.216280052
0.216191689
0.216099361
0.216003061
0.215902783
0.215798522
0.215690271
0.215578025
0.215461777
0.215341521
0.215217253
0.215088965
0.214956653
0.214820311
0.214679932
0.214535513
0.214387046
0.214234526
0.214077949
0.213917308
0.213752598
0.213583814
0.213410951
0.213234003
0.213052965
0.212867833
0.2126786
0.212485262
0.212287815
0.212086252
0.211880569
0.211670762
0.211456825
0.211238753
0.211016543
0.210790188
0.210559686
0.21032503
0.210086217
0.209843242
0.2095961
0.209344787
0.2090893
0.208829633
0.208565782
0.208297743
0.208025512
0.207749085
0.207468458
0.207183626
0.206894586
0.206601334
0.206303866
0.206002178
0.205696267
0.205386128
0.205071758
0.204753153
0.20443031
0.204103226
0.203771896
0.203436318
0.203096487
0.202752401
0.202404057
0.20205145
0.201694578
0.201333439
0.200968027
0.200598342
0.200224379
0.199846136
0.199463609
0.199076797
0.198685696
0.198290303
0.197890616
0.197486632
0.197078349
0.196665764
0.196248874
0.195827677
0.195402171
0.194972353
0.194538222
0.194099774
0.193657008
0.193209921
0.192758512
0.192302778
0.191842717
0.191378328
0.190909609
0.190436557
0.189959172
0.18947745
0.188991391
0.188500993
0.188006255
0.187507174
0.18700375
0.186495981
0.185983865
0.185467402
0.18494659
0.184421428
0.183891914
0.183358048
0.182819828
0.182277254
0.181730325
0.181179039
0.180623396
0.180063395
0.179499035
0.178930316
0.178357237
0.177779798
0.177197997
0.176611834
0.17602131
0.175426423
0.174827174
0.174223561
0.173615585
0.173003246
0.172386543
0.171765477
0.171140048
0.170510254
0.169876098
0.169237578
0.168594695
0.16794745
0.167295842
0.166639871
0.16597954
0.165314847
0.164645793
0.16397238
0.163294607
0.162612475
0.161925985
0.161235138
0.160539935
0.159840376
0.159136463
0.158428196
0.157715577
0.156998606
0.156277286
0.155551616
0.154821599
0.154087236
0.153348527
0.152605476
0.151858082
0.151106348
0.150350275
0.149589864
0.148825119
0.148056039
0.147282628
0.146504887
0.145722817
0.144936422
0.144145702
0.143350661
0.142551299
0.14174762
0.140939625
0.140127318
0.139310699
0.138489772
0.13766454
0.136835003
0.136001166
0.135163031
0.134320601
0.133473877
0.132622864
0.131767563
0.130907979
0.130044113
0.129175968
0.128303548
0.127426857
0.126545896
0.12566067
0.124771181
0.123877432
0.122979429
0.122077172
0.121170667
0.120259917
0.119344925
0.118425695
0.11750223
0.116574535
0.115642613
0.114706469
0.113766105
0.112821526
0.111872737
0.11091974
0.10996254
0.109001142
0.10803555
0.107065768
0.1060918
0.10511365
0.104131324
0.103144826
0.102154159
0.10115933
0.100160342
0.0991572006
0.09814991
0.0971384754
0.0961229015
0.0951031933
0.0940793559
0.0930513942
0.0920193133
0.0909831184
0.0899428148
0.0888984076
0.0878499023
0.0867973041
0.0857406185
0.0846798509
0.0836150069
0.0825460921
0.081473112
0.0803960725
0.0793149792
0.0782298379
0.0771406545
0.0760474348
0.0749501848
0.0738489106
0.0727436181
0.0716343135
0.070521003
0.0694036927
0.068282389
0.0671570981
0.0660278265
0.0648945805
0.0637573666
0.0626161914
0.0614710614
0.0603219833
0.0591689638
0.0580120096
0.0568511275
0.0556863243
0.054517607
0.0533449824
0.0521684576
0.0509880397
0.0498037357
0.0486155528
0.0474234983
0.0462275792
0.0450278031
0.0438241772
0.0426167089
0.0414054057
0.0401902752
0.0389713249
0.0377485624
0.0365219954
0.0352916315
0.0340574787
0.0328195447
0.0315778373
0.0303323646
0.0290831344
0.0278301548
0.0265734339
0.0253129798
0.0240488007
0.0227809048
0.0215093004
0.0202339958
0.0189549994
0.0176723197
0.016385965
0.015095944
0.0138022653
0.0125049373
0.0112039689
0.00989936877
0.00859114565
0.0072793084
0.00596386589
0.00464482705
0.00332220084
0.00199599631
0.000666222518
0.000667111408
0.0020039963
0.00334442292
0.00468838202
0.00603586427
0.00738686031
0.00874136071
0.010099356
0.0114608367
0.0128257932
0.014194216
0.0155660953
0.0169414215
0.0183201848
0.0197023753
0.0210879834
0.022476999
0.0238694122
0.025265213
0.0266643914
0.0280669374
0.0294728407
0.0308820911
0.0322946786
0.0337105927
0.0351298232
0.0365523597
0.0379781917
0.0394073089
0.0408397007
0.0422753566
0.043714266
0.0451564181
0.0466018024
0.0480504081
0.0495022244
0.0509572405
0.0524154454
0.0538768284
0.0553413784
0.0568090844
0.0582799354
0.0597539202
0.0612310278
0.0627112469
0.0641945662
0.0656809746
0.0671704607
0.0686630131
0.0701586204
0.0716572712
0.0731589539
0.0746636571
0.0761713691
0.0776820783
0.079195773
0.0807124415
0.0822320721
0.0837546529
0.0852801721
0.0868086179
0.0883399782
0.0898742411
0.0914113946
0.0929514266
0.0944943251
0.0960400778
0.0975886727
0.0991400974
0.10069434
0.102251387
0.103811228
0.105373849
0.106939238
0.108507383
0.110078271
0.111651889
0.113228226
0.114807267
0.116389002
0.117973416
0.119560498
0.121150233
0.122742611
0.124337617
0.125935238
0.127535463
0.129138277
0.130743668
0.132351622
0.133962128
0.13557517
0.137190737
0.138808814
0.14042939
0.142052449
0.14367798
0.145305968
0.146936401
0.148569264
0.150204545
0.151842229
0.153482303
0.155124754
0.156769568
0.158416731
0.16006623
0.16171805
0.163372178
0.165028601
0.166687304
0.168348273
0.170011494
0.171676954
0.173344638
0.175014533
0.176686624
0.178360897
0.180037339
0.181715934
0.183396669
0.185079529
0.186764501
0.188451569
0.19014072
0.191831938
0.193525211
0.195220522
0.196917859
0.198617205
0.200318547
0.202021871
0.20372716
0.205434402
0.20714358
0.208854681
0.21056769
0.212282591
0.21399937
0.215718013
0.217438504
0.219160828
0.220884971
0.222610918
0.224338653
0.226068161
0.227799428
0.229532438
0.231267177
0.233003628
0.234741778
0.23648161
0.23822311
0.239966262
0.241711051
0.243457461
0.245205477
0.246955085
0.248706268
0.250459011
0.252213298
0.253969115
0.255726445
0.257485273
0.259245583
0.261007361
0.262770589
0.264535253
0.266301337
0.268068825
0.269837701
0.271607951
0.273379556
0.275152503
0.276926776
0.278702357
0.280479232
0.282257385
0.284036799
0.285817459
0.287599348
0.289382452
0.291166752
0.292952235
0.294738883
0.29652668
0.29831561
0.300105658
0.301896807
0.30368904
0.305482342
0.307276696
0.309072086
0.310868496
0.312665909
0.31446431
0.316263681
0.318064006
0.31986527
0.321667455
0.323470545
0.325274524
0.327079375
0.328885082
0.330691628
0.332498996
0.334307171
0.336116136
0.337925873
0.339736366
0.3415476
0.343359556
0.345172219
0.346985571
0.348799597
0.350614278
0.3524296
0.354245544
0.356062094
0.357879233
0.359696945
0.361515212
0.363334018
0.365153346
0.366973179
0.3687935
0.370614292
0.372435539
0.374257223
0.376079328
0.377901836
0.37972473
0.381547994
0.383371611
0.385195563
0.387019833
0.388844405
0.390669261
0.392494384
0.394319758
0.396145364
0.397971187
0.399797208
0.401623411
0.403449779
0.405276294
0.407102939
0.408929697
0.410756551
0.412583483
0.414410477
0.416237516
0.418064581
0.419891655
0.421718722
0.423545765
0.425372765
0.427199705
0.429026569
0.430853339
0.432679998
0.434506528
0.436332912
0.438159132
0.439985172
0.441811014
0.44363664
0.445462034
0.447287177
0.449112053
0.450936644
0.452760933
0.454584902
0.456408533
0.45823181
0.460054715
0.461877231
0.46369934
0.465521024
0.467342267
0.46916305
0.470983357
0.47280317
0.474622471
0.476441243
0.478259469
0.48007713
0.481894211
0.483710692
0.485526557
0.487341788
0.489156367
0.490970278
0.492783502
0.494596022
0.496407821
0.498218882
0.500029186
0.501838716
0.503647454
0.505455384
0.507262487
0.509068747
0.510874145
0.512678665
0.514482288
0.516284997
0.518086775
0.519887604
0.521687467
0.523486346
0.525284223
0.527081082
0.528876905
0.530671673
0.532465371
0.53425798
0.536049482
0.537839861
0.539629099
0.541417178
0.543204081
0.54498979
0.546774289
0.548557559
0.550339583
0.552120344
0.553899824
0.555678006
0.557454872
0.559230405
0.561004588
0.562777403
0.564548833
0.56631886
0.568087467
0.569854636
0.571620351
0.573384594
0.575147347
0.576908593
0.578668315
0.580426496
0.582183118
0.583938164
0.585691616
0.587443457
0.58919367
0.590942238
0.592689144
0.594434369
0.596177898
0.597919712
0.599659794
0.601398128
0.603134696
0.60486948
0.606602465
0.608333631
0.610062963
0.611790443
0.613516054
0.615239779
0.616961601
0.618681502
0.620399466
0.622115476
0.623829514
0.625541563
0.627251607
0.628959628
0.63066561
0.632369535
0.634071386
0.635771147
0.6374688
0.639164329
0.640857716
0.642548946
0.644238
0.645924862
0.647609515
0.649291943
0.650972128
0.652650054
0.654325704
0.655999061
0.657670109
0.65933883
0.661005208
0.662669227
0.664330869
0.665990119
0.667646958
0.669301371
0.670953342
0.672602853
0.674249888
0.67589443
0.677536464
0.679175972
0.680812938
0.682447345
0.684079177
0.685708418
0.687335052
0.688959061
0.69058043
0.692199142
0.693815181
0.69542853
0.697039174
0.698647096
0.70025228
0.701854709
0.703454368
0.705051241
0.70664531
0.708236561
0.709824977
0.711410542
0.71299324
0.714573055
0.716149971
0.717723972
0.719295043
0.720863166
0.722428327
0.723990509
0.725549697
0.727105875
0.728659027
0.730209137
0.73175619
0.73330017
0.734841061
0.736378848
0.737913515
0.739445046
0.740973427
0.74249864
0.744020672
0.745539506
0.747055126
0.748567519
0.750076667
0.751582557
0.753085171
0.754584496
0.756080516
0.757573216
0.75906258
0.760548593
0.762031241
0.763510507
0.764986378
0.766458837
0.76792787
0.769393463
0.770855599
0.772314264
0.773769443
0.775221121
0.776669284
0.778113917
0.779555004
0.780992532
0.782426485
0.783856849
0.785283608
0.78670675
0.788126258
0.789542119
0.790954318
0.79236284
0.793767671
0.795168797
0.796566204
0.797959876
0.7993498
0.800735961
0.802118346
0.80349694
0.804871728
0.806242698
0.807609834
0.808973123
0.81033255
0.811688103
0.813039766
0.814387526
0.815731369
0.817071281
0.818407249
0.819739259
0.821067297
0.822391349
0.823711401
0.825027441
0.826339455
0.827647429
0.828951349
0.830251203
0.831546976
0.832838656
0.83412623
0.835409683
0.836689003
0.837964176
0.839235189
0.84050203
0.841764685
0.843023142
0.844277386
0.845527406
0.846773188
0.848014719
0.849251987
0.850484979
0.851713682
0.852938083
0.85415817
0.85537393
0.856585351
0.85779242
0.858995125
0.860193453
0.861387391
0.862576928
0.863762051
0.864942747
0.866119006
0.867290814
0.868458159
0.869621029
0.870779412
0.871933297
0.873082671
0.874227522
0.875367838
0.876503609
0.877634821
0.878761463
0.879883523
0.881000991
0.882113853
0.883222099
0.884325718
0.885424697
0.886519025
0.887608691
0.888693684
0.889773992
0.890849605
0.89192051
0.892986697
0.894048155
0.895104873
0.896156839
0.897204043
0.898246475
0.899284122
0.900316974
0.901345021
0.902368252
0.903386657
0.904400223
0.905408942
0.906412803
0.907411794
0.908405907
0.90939513
0.910379452
0.911358865
0.912333357
0.913302919
0.91426754
0.915227211
0.916181921
0.91713166
0.918076419
0.919016187
0.919950955
0.920880713
0.921805452
0.922725162
0.923639832
0.924549455
0.925454019
0.926353516
0.927247937
0.928137271
0.92902151
0.929900645
0.930774666
0.931643564
0.93250733
0.933365955
0.93421943
0.935067747
0.935910896
0.936748868
0.937581655
0.938409248
0.939231639
0.940048818
0.940860778
0.94166751
0.942469005
0.943265254
0.944056251
0.944841986
0.945622451
0.946397638
0.947167539
0.947932146
0.94869145
0.949445445
0.950194121
0.950937472
0.951675489
0.952408165
0.953135492
0.953857462
0.954574068
0.955285302
0.955991157
0.956691626
0.9573867
0.958076374
0.958760639
0.959439489
0.960112916
0.960780913
0.961443474
0.962100591
0.962752257
0.963398466
0.964039211
0.964674485
0.965304282
0.965928594
0.966547416
0.967160741
0.967768562
0.968370873
0.968967668
0.96955894
0.970144684
0.970724892
0.97129956
0.971868681
0.972432248
0.972990257
0.973542701
0.974089575
0.974630872
0.975166587
0.975696715
0.97622125
0.976740186
0.977253517
0.97776124
0.978263347
0.978759835
0.979250697
0.979735928
0.980215524
0.98068948
0.98115779
0.981620449
0.982077453
0.982528797
0.982974476
0.983414485
0.98384882
0.984277477
0.98470045
0.985117735
0.985529328
0.985935225
0.986335421
0.986729913
0.987118695
0.987501764
0.987879116
0.988250747
0.988616652
0.988976829
0.989331273
0.989679981
0.990022949
0.990360173
0.99069165
0.991017376
0.991337348
0.991651562
0.991960016
0.992262705
0.992559628
0.99285078
0.993136159
0.993415761
0.993689584
0.993957624
0.99421988
0.994476348
0.994727025
0.994971909
0.995210997
0.995444288
0.995671777
0.995893463
0.996109344
0.996319417
0.996523681
0.996722132
0.996914769
0.99710159
0.997282593
0.997457776
0.997627137
0.997790674
0.997948386
0.99810027
0.998246327
0.998386552
0.998520947
0.998649508
0.998772235
0.998889126
0.99900018
0.999105396
0.999204773
0.999298309
0.999386004
0.999467857
0.999543867
0.999614033
0.999678355
0.999736831
0.999789462
0.999836246
0.999877183
0.999912272
0.999941514
0.999964908
0.999982454
0.999994151
1
1
0.999994151
0.999982454
0.999964908
0.999941514
0.999912272
0.999877183
0.999836246
0.999789462
0.999736831
0.999678355
0.999614033
0.999543867
0.999467857
0.999386004
0.999298309
0.999204773
0.999105396
0.99900018
0.998889126
0.998772235
0.998649508
0.998520947
0.998386552
0.998246327
0.99810027
0.997948386
0.997790674
0.997627137
0.997457776
0.997282593
0.99710159
0.996914769
0.996722132
0.996523681
0.996319417
0.996109344
0.995893463
0.995671777
0.995444288
0.995210997
0.994971909
0.994727025
0.994476348
0.99421988
0.993957624
0.993689584
0.993415761
0.993136159
0.99285078
0.992559628
0.992262705
0.991960016
0.991651562
0.991337348
0.991017376
0.99069165
0.990360173
0.990022949
0.989679981
0.989331273
0.988976829
0.988616652
0.988250747
0.987879116
0.987501764
0.987118695
0.986729913
0.986335421
0.985935225
0.985529328
0.985117735
0.98470045
0.984277477
0.98384882
0.983414485
0.982974476
0.982528797
0.982077453
0.981620449
0.98115779
0.98068948
0.980215524
0.979735928
0.979250697
0.978759835
0.978263347
0.97776124
0.977253517
0.976740186
0.97622125
0.975696715
0.975166587
0.974630872
0.974089575
0.973542701
0.972990257
0.972432248
0.971868681
0.97129956
0.970724892
0.970144684
0.96955894
0.968967668
0.968370873
0.967768562
0.967160741
0.966547416
0.965928594
0.965304282
0.964674485
0.964039211
0.963398466
0.962752257
0.962100591
0.961443474
0.960780913
0.960112916
0.959439489
0.958760639
0.958076374
0.9573867
0.956691626
0.955991157
0.955285302
0.954574068
0.953857462
0.953135492
0.952408165
0.951675489
0.950937472
0.950194121
0.949445445
0.94869145
0.947932146
0.947167539
0.946397638
0.945622451
0.944841986
0.944056251
0.943265254
0.942469005
0.94166751
0.940860778
0.940048818
0.939231639
0.938409248
0.937581655
0.936748868
0.935910896
0.935067747
0.93421943
0.933365955
0.93250733
0.931643564
0.930774666
0.929900645
0.92902151
0.928137271
0.927247937
0.926353516
0.925454019
0.924549455
0.923639832
0.922725162
0.921805452
0.920880713
0.919950955
0.919016187
0.918076419
0.91713166
0.916181921
0.915227211
0.91426754
0.913302919
0.912333357
0.911358865
0.910379452
0.90939513
0.908405907
0.907411794
0.906412803
0.905408942
0.904400223
0.903386657
0.902368252
0.901345021
0.900316974
0.899284122
0.898246475
0.897204043
0.896156839
0.895104873
0.894048155
0.892986697
0.89192051
0.890849605
0.889773992
0.888693684
0.887608691
0.886519025
0.885424697
0.884325718
0.883222099
0.882113853
0.881000991
0.879883523
0.878761463
0.877634821
0.876503609
0.875367838
0.874227522
0.873082671
0.871933297
0.870779412
0.869621029
0.868458159
0.867290814
0.866119006
0.864942747
0.863762051
0.862576928
0.861387391
0.860193453
0.858995125
0.85779242
0.856585351
0.85537393
0.85415817
0.852938083
0.851713682
0.850484979
0.849251987
0.848014719
0.846773188
0.845527406
0.844277386
0.843023142
0.841764685
0.84050203
0.839235189
0.837964176
0.836689003
0.835409683
0.83412623
0.832838656
0.831546976
0.830251203
0.828951349
0.827647429
0.826339455
0.825027441
0.823711401
0.822391349
0.821067297
0.819739259
0.818407249
0.817071281
0.815731369
0.814387526
0.813039766
0.811688103
0.81033255
0.808973123
0.807609834
0.806242698
0.804871728
0.80349694
0.802118346
0.800735961
0.7993498
0.797959876
0.796566204
0.795168797
0.793767671
0.79236284
0.790954318
0.789542119
0.788126258
0.78670675
0.785283608
0.783856849
0.782426485
0.780992532
0.779555004
0.778113917
0.776669284
0.775221121
0.773769443
0.772314264
0.770855599
0.769393463
0.76792787
0.766458837
0.764986378
0.763510507
0.762031241
0.760548593
0.75906258
0.757573216
0.756080516
0.754584496
0.753085171
0.751582557
0.750076667
0.748567519
0.747055126
0.745539506
0.744020672
0.74249864
0.740973427
0.739445046
0.737913515
0.736378848
0.734841061
0.73330017
0.73175619
0.730209137
0.728659027
0.727105875
0.725549697
0.723990509
0.722428327
0.720863166
0.719295043
0.717723972
0.716149971
0.714573055
0.71299324
0.711410542
0.709824977
0.708236561
0.70664531
0.705051241
0.703454368
0.701854709
0.70025228
0.698647096
0.697039174
0.69542853
0.693815181
0.692199142
0.69058043
0.688959061
0.687335052
0.685708418
0.684079177
0.682447345
0.680812938
0.679175972
0.677536464
0.67589443
0.674249888
0.672602853
0.670953342
0.669301371
0.667646958
0.665990119
0.664330869
0.662669227
0.661005208
0.65933883
0.657670109
0.655999061
0.654325704
0.652650054
0.650972128
0.649291943
0.647609515
0.645924862
0.644238
0.642548946
0.640857716
0.639164329
0.6374688
0.635771147
0.634071386
0.632369535
0.63066561
0.628959628
0.627251607
0.625541563
0.623829514
0.622115476
0.620399466
0.618681502
0.616961601
0.615239779
0.613516054
0.611790443
0.610062963
0.608333631
0.606602465
0.60486948
0.603134696
0.601398128
0.599659794
0.597919712
0.596177898
0.594434369
0.592689144
0.590942238
0.58919367
0.587443457
0.585691616
0.583938164
0.582183118
0.580426496
0.578668315
0.576908593
0.575147347
0.573384594
0.571620351
0.569854636
0.568087467
0.56631886
0.564548833
0.562777403
0.561004588
0.559230405
0.557454872
0.555678006
0.553899824
0.552120344
0.550339583
0.548557559
0.546774289
0.54498979
0.543204081
0.541417178
0.539629099
0.537839861
0.536049482
0.53425798
0.532465371
0.530671673
0.528876905
0.527081082
0.525284223
0.523486346
0.521687467
0.519887604
0.518086775
0.516284997
0.514482288
0.512678665
0.510874145
0.509068747
0.507262487
0.505455384
0.503647454
0.501838716
0.500029186
0.498218882
0.496407821
0.494596022
0.492783502
0.490970278
0.489156367
0.487341788
0.485526557
0.483710692
0.481894211
0.48007713
0.478259469
0.476441243
0.474622471
0.47280317
0.470983357
0.46916305
0.467342267
0.465521024
0.46369934
0.461877231
0.460054715
0.45823181
0.456408533
0.454584902
0.452760933
0.450936644
0.449112053
0.447287177
0.445462034
0.44363664
0.441811014
0.439985172
0.438159132
0.436332912
0.434506528
0.432679998
0.430853339
0.429026569
0.427199705
0.425372765
0.423545765
0.421718722
0.419891655
0.418064581
0.416237516
0.414410477
0.412583483
0.410756551
0.408929697
0.407102939
0.405276294
0.403449779
0.401623411
0.399797208
0.397971187
0.396145364
0.394319758
0.392494384
0.390669261
0.388844405
0.387019833
0.385195563
0.383371611
0.381547994
0.37972473
0.377901836
0.376079328
0.374257223
0.372435539
0.370614292
0.3687935
0.366973179
0.365153346
0.363334018
0.361515212
0.359696945
0.357879233
0.356062094
0.354245544
0.3524296
0.350614278
0.348799597
0.346985571
0.345172219
0.343359556
0.3415476
0.339736366
0.337925873
0.336116136
0.334307171
0.332498996
0.330691628
0.328885082
0.327079375
0.325274524
0.323470545
0.321667455
0.31986527
0.318064006
0.316263681
0.31446431
0.312665909
0.310868496
0.309072086
0.307276696
0.305482342
0.30368904
0.301896807
0.300105658
0.29831561
0.29652668
0.294738883
0.292952235
0.291166752
0.289382452
0.287599348
0.285817459
0.284036799
0.282257385
0.280479232
0.278702357
0.276926776
0.275152503
0.273379556
0.271607951
0.269837701
0.268068825
0.266301337
0.264535253
0.262770589
0.261007361
0.259245583
0.257485273
0.255726445
0.253969115
0.252213298
0.250459011
0.248706268
0.246955085
0.245205477
0.243457461
0.241711051
0.239966262
0.23822311
0.23648161
0.234741778
0.233003628
0.231267177
0.229532438
0.227799428
0.226068161
0.224338653
0.222610918
0.220884971
0.219160828
0.217438504
0.215718013
0.21399937
0.212282591
0.21056769
0.208854681
0.20714358
0.205434402
0.20372716
0.202021871
0.200318547
0.198617205
0.196917859
0.195220522
0.193525211
0.191831938
0.19014072
0.188451569
0.186764501
0.185079529
0.183396669
0.181715934
0.180037339
0.178360897
0.176686624
0.175014533
0.173344638
0.171676954
0.170011494
0.168348273
0.166687304
0.165028601
0.163372178
0.16171805
0.16006623
0.158416731
0.156769568
0.155124754
0.153482303
0.151842229
0.150204545
0.148569264
0.146936401
0.145305968
0.14367798
0.142052449
0.14042939
0.138808814
0.137190737
0.13557517
0.133962128
0.132351622
0.130743668
0.129138277
0.127535463
0.125935238
0.124337617
0.122742611
0.121150233
0.119560498
0.117973416
0.116389002
0.114807267
0.113228226
0.111651889
0.110078271
0.108507383
0.106939238
0.105373849
0.103811228
0.102251387
0.10069434
0.0991400974
0.0975886727
0.0960400778
0.0944943251
0.0929514266
0.0914113946
0.0898742411
0.0883399782
0.0868086179
0.0852801721
0.0837546529
0.0822320721
0.0807124415
0.079195773
0.0776820783
0.0761713691
0.0746636571
0.0731589539
0.0716572712
0.0701586204
0.0686630131
0.0671704607
0.0656809746
0.0641945662
0.0627112469
0.0612310278
0.0597539202
0.0582799354
0.0568090844
0.0553413784
0.0538768284
0.0524154454
0.0509572405
0.0495022244
0.0480504081
0.0466018024
0.0451564181
0.043714266
0.0422753566
0.0408397007
0.0394073089
0.0379781917
0.0365523597
0.0351298232
0.0337105927
0.0322946786
0.0308820911
0.0294728407
0.0280669374
0.0266643914
0.025265213
0.0238694122
0.022476999
0.0210879834
0.0197023753
0.0183201848
0.0169414215
0.0155660953
0.014194216
0.0128257932
0.0114608367
0.010099356
0.00874136071
0.00738686031
0.00603586427
0.00468838202
0.00334442292
0.0020039963
0.000667111408
0.000666222518
0.00199599631
0.00332220084
0.00464482705
0.00596386589
0.0072793084
0.00859114565
0.00989936877
0.0112039689
0.0125049373
0.0138022653
0.015095944
0.016385965
0.0176723197
0.0189549994
0.0202339958
0.0215093004
0.0227809048
0.0240488007
0.0253129798
0.0265734339
0.0278301548
0.0290831344
0.0303323646
0.0315778373
0.0328195447
0.0340574787
0.0352916315
0.0365219954
0.0377485624
0.0389713249
0.0401902752
0.0414054057
0.0426167089
0.0438241772
0.0450278031
0.0462275792
0.0474234983
0.0486155528
0.0498037357
0.0509880397
0.0521684576
0.0533449824
0.054517607
0.0556863243
0.0568511275
0.0580120096
0.0591689638
0.0603219833
0.0614710614
0.0626161914
0.0637573666
0.0648945805
0.0660278265
0.0671570981
0.068282389
0.0694036927
0.070521003
