# Pulseq sequence file
# Created by PyPulseq

[VERSION]
major 1
minor 5
revision 0

[DEFINITIONS]
AdcDeadTime 0.0001 
AdcRasterTime 1e-07 
BlockDurationRaster 1e-05 
FOV 0.06 0.06 0.001 
GradientRasterTime 1e-05 
Matrix 128 128 1 
Name bruker_gre_label 
RadiofrequencyRasterTime 1e-06 
TE 0.015 
TR 0.5 
TotalDuration 391.62112 
alpha 90 
nslices 1 
rf_spoiling_inc 117 
ro_duration 0.00256 
spoiler_duration 0.003 
system_grad_raster_time 1e-05 
system_max_grad 12772800 
system_max_slew 8.5152e+10 
system_rf_dead_time 0.0001 
system_rf_ringdown_time 2e-05 

# Format of blocks:
# NUM DUR RF  GX  GY  GZ  ADC  EXT
[BLOCKS]
    1  10   0   0   0   0  0  1
    2 312   1   0   0   1  0  0
    3  50   0   2   0   0  0  0
    4  50   0   3   0   0  0  0
    5  50   0   2   0   0  0  0
    6  50   0   3   0   0  0  0
    7  50   0   2   0   0  0  0
    8  50   0   3   0   0  0  0
    9  50   0   2   0   0  0  0
   10  50   0   3   0   0  0  0
   11  50   0   2   0   0  0  0
   12  50   0   3   0   0  0  0
   13  50   0   2   0   0  0  0
   14  50   0   3   0   0  0  0
   15  50   0   2   0   0  0  0
   16  50   0   3   0   0  0  0
   17  50   0   2   0   0  0  0
   18  50   0   3   0   0  0  0
   19  50   0   2   0   0  0  0
   20  50   0   3   0   0  0  0
   21  50   0   2   0   0  0  0
   22  50   0   3   0   0  0  0
   23 100   0   4   5   6  0  0
   24 111   0   0   0   0  0  0
   25 276   0   7   0   0  1  0
   26 300   0   8   9  10  0  0
   27 48900   0   0   0   0  0  0
   28  10   0   0   0   0  0  1
   29 312   1   0   0   1  0  0
   30  50   0   3   0   0  0  0
   31  50   0   2   0   0  0  0
   32  50   0   3   0   0  0  0
   33  50   0   2   0   0  0  0
   34  50   0   3   0   0  0  0
   35  50   0   2   0   0  0  0
   36  50   0   3   0   0  0  0
   37  50   0   2   0   0  0  0
   38  50   0   3   0   0  0  0
   39  50   0   2   0   0  0  0
   40  50   0   3   0   0  0  0
   41  50   0   2   0   0  0  0
   42  50   0   3   0   0  0  0
   43  50   0   2   0   0  0  0
   44  50   0   3   0   0  0  0
   45  50   0   2   0   0  0  0
   46  50   0   3   0   0  0  0
   47  50   0   2   0   0  0  0
   48  50   0   3   0   0  0  0
   49  50   0   2   0   0  0  0
   50 100   0   4   5   6  0  0
   51 111   0   0   0   0  0  0
   52 276   0   7   0   0  1  0
   53 300   0   8   9  10  0  0
   54 48900   0   0   0   0  0  0
   55  10   0   0   0   0  0  1
   56 312   2   0   0   1  0  0
   57  50   0   2   0   0  0  0
   58  50   0   3   0   0  0  0
   59  50   0   2   0   0  0  0
   60  50   0   3   0   0  0  0
   61  50   0   2   0   0  0  0
   62  50   0   3   0   0  0  0
   63  50   0   2   0   0  0  0
   64  50   0   3   0   0  0  0
   65  50   0   2   0   0  0  0
   66  50   0   3   0   0  0  0
   67  50   0   2   0   0  0  0
   68  50   0   3   0   0  0  0
   69  50   0   2   0   0  0  0
   70  50   0   3   0   0  0  0
   71  50   0   2   0   0  0  0
   72  50   0   3   0   0  0  0
   73  50   0   2   0   0  0  0
   74  50   0   3   0   0  0  0
   75  50   0   2   0   0  0  0
   76  50   0   3   0   0  0  0
   77 100   0   4  11   6  0  0
   78 111   0   0   0   0  0  0
   79 276   0   7   0   0  2  0
   80 300   0   8  12  10  0  0
   81 48900   0   0   0   0  0  0
   82  10   0   0   0   0  0  1
   83 312   2   0   0   1  0  0
   84  50   0   3   0   0  0  0
   85  50   0   2   0   0  0  0
   86  50   0   3   0   0  0  0
   87  50   0   2   0   0  0  0
   88  50   0   3   0   0  0  0
   89  50   0   2   0   0  0  0
   90  50   0   3   0   0  0  0
   91  50   0   2   0   0  0  0
   92  50   0   3   0   0  0  0
   93  50   0   2   0   0  0  0
   94  50   0   3   0   0  0  0
   95  50   0   2   0   0  0  0
   96  50   0   3   0   0  0  0
   97  50   0   2   0   0  0  0
   98  50   0   3   0   0  0  0
   99  50   0   2   0   0  0  0
  100  50   0   3   0   0  0  0
  101  50   0   2   0   0  0  0
  102  50   0   3   0   0  0  0
  103  50   0   2   0   0  0  0
  104 100   0   4  11   6  0  0
  105 111   0   0   0   0  0  0
  106 276   0   7   0   0  2  0
  107 300   0   8  12  10  0  0
  108 48900   0   0   0   0  0  0
  109  10   0   0   0   0  0  1
  110 312   3   0   0   1  0  0
  111  50   0   2   0   0  0  0
  112  50   0   3   0   0  0  0
  113  50   0   2   0   0  0  0
  114  50   0   3   0   0  0  0
  115  50   0   2   0   0  0  0
  116  50   0   3   0   0  0  0
  117  50   0   2   0   0  0  0
  118  50   0   3   0   0  0  0
  119  50   0   2   0   0  0  0
  120  50   0   3   0   0  0  0
  121  50   0   2   0   0  0  0
  122  50   0   3   0   0  0  0
  123  50   0   2   0   0  0  0
  124  50   0   3   0   0  0  0
  125  50   0   2   0   0  0  0
  126  50   0   3   0   0  0  0
  127  50   0   2   0   0  0  0
  128  50   0   3   0   0  0  0
  129  50   0   2   0   0  0  0
  130  50   0   3   0   0  0  0
  131 100   0   4  13   6  0  0
  132 111   0   0   0   0  0  0
  133 276   0   7   0   0  3  0
  134 300   0   8  14  10  0  0
  135 48900   0   0   0   0  0  0
  136  10   0   0   0   0  0  1
  137 312   3   0   0   1  0  0
  138  50   0   3   0   0  0  0
  139  50   0   2   0   0  0  0
  140  50   0   3   0   0  0  0
  141  50   0   2   0   0  0  0
  142  50   0   3   0   0  0  0
  143  50   0   2   0   0  0  0
  144  50   0   3   0   0  0  0
  145  50   0   2   0   0  0  0
  146  50   0   3   0   0  0  0
  147  50   0   2   0   0  0  0
  148  50   0   3   0   0  0  0
  149  50   0   2   0   0  0  0
  150  50   0   3   0   0  0  0
  151  50   0   2   0   0  0  0
  152  50   0   3   0   0  0  0
  153  50   0   2   0   0  0  0
  154  50   0   3   0   0  0  0
  155  50   0   2   0   0  0  0
  156  50   0   3   0   0  0  0
  157  50   0   2   0   0  0  0
  158 100   0   4  13   6  0  0
  159 111   0   0   0   0  0  0
  160 276   0   7   0   0  3  0
  161 300   0   8  14  10  0  0
  162 48900   0   0   0   0  0  0
  163  10   0   0   0   0  0  1
  164 312   4   0   0   1  0  0
  165  50   0   2   0   0  0  0
  166  50   0   3   0   0  0  0
  167  50   0   2   0   0  0  0
  168  50   0   3   0   0  0  0
  169  50   0   2   0   0  0  0
  170  50   0   3   0   0  0  0
  171  50   0   2   0   0  0  0
  172  50   0   3   0   0  0  0
  173  50   0   2   0   0  0  0
  174  50   0   3   0   0  0  0
  175  50   0   2   0   0  0  0
  176  50   0   3   0   0  0  0
  177  50   0   2   0   0  0  0
  178  50   0   3   0   0  0  0
  179  50   0   2   0   0  0  0
  180  50   0   3   0   0  0  0
  181  50   0   2   0   0  0  0
  182  50   0   3   0   0  0  0
  183  50   0   2   0   0  0  0
  184  50   0   3   0   0  0  0
  185 100   0   4  15   6  0  0
  186 111   0   0   0   0  0  0
  187 276   0   7   0   0  4  0
  188 300   0   8  16  10  0  0
  189 48900   0   0   0   0  0  0
  190  10   0   0   0   0  0  1
  191 312   4   0   0   1  0  0
  192  50   0   3   0   0  0  0
  193  50   0   2   0   0  0  0
  194  50   0   3   0   0  0  0
  195  50   0   2   0   0  0  0
  196  50   0   3   0   0  0  0
  197  50   0   2   0   0  0  0
  198  50   0   3   0   0  0  0
  199  50   0   2   0   0  0  0
  200  50   0   3   0   0  0  0
  201  50   0   2   0   0  0  0
  202  50   0   3   0   0  0  0
  203  50   0   2   0   0  0  0
  204  50   0   3   0   0  0  0
  205  50   0   2   0   0  0  0
  206  50   0   3   0   0  0  0
  207  50   0   2   0   0  0  0
  208  50   0   3   0   0  0  0
  209  50   0   2   0   0  0  0
  210  50   0   3   0   0  0  0
  211  50   0   2   0   0  0  0
  212 100   0   4  15   6  0  0
  213 111   0   0   0   0  0  0
  214 276   0   7   0   0  4  0
  215 300   0   8  16  10  0  0
  216 48900   0   0   0   0  0  0
  217  10   0   0   0   0  0  1
  218 312   5   0   0   1  0  0
  219  50   0   2   0   0  0  0
  220  50   0   3   0   0  0  0
  221  50   0   2   0   0  0  0
  222  50   0   3   0   0  0  0
  223  50   0   2   0   0  0  0
  224  50   0   3   0   0  0  0
  225  50   0   2   0   0  0  0
  226  50   0   3   0   0  0  0
  227  50   0   2   0   0  0  0
  228  50   0   3   0   0  0  0
  229  50   0   2   0   0  0  0
  230  50   0   3   0   0  0  0
  231  50   0   2   0   0  0  0
  232  50   0   3   0   0  0  0
  233  50   0   2   0   0  0  0
  234  50   0   3   0   0  0  0
  235  50   0   2   0   0  0  0
  236  50   0   3   0   0  0  0
  237  50   0   2   0   0  0  0
  238  50   0   3   0   0  0  0
  239 100   0   4  17   6  0  0
  240 111   0   0   0   0  0  0
  241 276   0   7   0   0  5  0
  242 300   0   8  18  10  0  0
  243 48900   0   0   0   0  0  0
  244  10   0   0   0   0  0  1
  245 312   5   0   0   1  0  0
  246  50   0   3   0   0  0  0
  247  50   0   2   0   0  0  0
  248  50   0   3   0   0  0  0
  249  50   0   2   0   0  0  0
  250  50   0   3   0   0  0  0
  251  50   0   2   0   0  0  0
  252  50   0   3   0   0  0  0
  253  50   0   2   0   0  0  0
  254  50   0   3   0   0  0  0
  255  50   0   2   0   0  0  0
  256  50   0   3   0   0  0  0
  257  50   0   2   0   0  0  0
  258  50   0   3   0   0  0  0
  259  50   0   2   0   0  0  0
  260  50   0   3   0   0  0  0
  261  50   0   2   0   0  0  0
  262  50   0   3   0   0  0  0
  263  50   0   2   0   0  0  0
  264  50   0   3   0   0  0  0
  265  50   0   2   0   0  0  0
  266 100   0   4  17   6  0  0
  267 111   0   0   0   0  0  0
  268 276   0   7   0   0  5  0
  269 300   0   8  18  10  0  0
  270 48900   0   0   0   0  0  0
  271  10   0   0   0   0  0  1
  272 312   6   0   0   1  0  0
  273  50   0   2   0   0  0  0
  274  50   0   3   0   0  0  0
  275  50   0   2   0   0  0  0
  276  50   0   3   0   0  0  0
  277  50   0   2   0   0  0  0
  278  50   0   3   0   0  0  0
  279  50   0   2   0   0  0  0
  280  50   0   3   0   0  0  0
  281  50   0   2   0   0  0  0
  282  50   0   3   0   0  0  0
  283  50   0   2   0   0  0  0
  284  50   0   3   0   0  0  0
  285  50   0   2   0   0  0  0
  286  50   0   3   0   0  0  0
  287  50   0   2   0   0  0  0
  288  50   0   3   0   0  0  0
  289  50   0   2   0   0  0  0
  290  50   0   3   0   0  0  0
  291  50   0   2   0   0  0  0
  292  50   0   3   0   0  0  0
  293 100   0   4  19   6  0  0
  294 111   0   0   0   0  0  0
  295 276   0   7   0   0  6  0
  296 300   0   8  20  10  0  0
  297 48900   0   0   0   0  0  0
  298  10   0   0   0   0  0  1
  299 312   6   0   0   1  0  0
  300  50   0   3   0   0  0  0
  301  50   0   2   0   0  0  0
  302  50   0   3   0   0  0  0
  303  50   0   2   0   0  0  0
  304  50   0   3   0   0  0  0
  305  50   0   2   0   0  0  0
  306  50   0   3   0   0  0  0
  307  50   0   2   0   0  0  0
  308  50   0   3   0   0  0  0
  309  50   0   2   0   0  0  0
  310  50   0   3   0   0  0  0
  311  50   0   2   0   0  0  0
  312  50   0   3   0   0  0  0
  313  50   0   2   0   0  0  0
  314  50   0   3   0   0  0  0
  315  50   0   2   0   0  0  0
  316  50   0   3   0   0  0  0
  317  50   0   2   0   0  0  0
  318  50   0   3   0   0  0  0
  319  50   0   2   0   0  0  0
  320 100   0   4  19   6  0  0
  321 111   0   0   0   0  0  0
  322 276   0   7   0   0  6  0
  323 300   0   8  20  10  0  0
  324 48900   0   0   0   0  0  0
  325  10   0   0   0   0  0  1
  326 312   7   0   0   1  0  0
  327  50   0   2   0   0  0  0
  328  50   0   3   0   0  0  0
  329  50   0   2   0   0  0  0
  330  50   0   3   0   0  0  0
  331  50   0   2   0   0  0  0
  332  50   0   3   0   0  0  0
  333  50   0   2   0   0  0  0
  334  50   0   3   0   0  0  0
  335  50   0   2   0   0  0  0
  336  50   0   3   0   0  0  0
  337  50   0   2   0   0  0  0
  338  50   0   3   0   0  0  0
  339  50   0   2   0   0  0  0
  340  50   0   3   0   0  0  0
  341  50   0   2   0   0  0  0
  342  50   0   3   0   0  0  0
  343  50   0   2   0   0  0  0
  344  50   0   3   0   0  0  0
  345  50   0   2   0   0  0  0
  346  50   0   3   0   0  0  0
  347 100   0   4  21   6  0  0
  348 111   0   0   0   0  0  0
  349 276   0   7   0   0  7  0
  350 300   0   8  22  10  0  0
  351 48900   0   0   0   0  0  0
  352  10   0   0   0   0  0  1
  353 312   7   0   0   1  0  0
  354  50   0   3   0   0  0  0
  355  50   0   2   0   0  0  0
  356  50   0   3   0   0  0  0
  357  50   0   2   0   0  0  0
  358  50   0   3   0   0  0  0
  359  50   0   2   0   0  0  0
  360  50   0   3   0   0  0  0
  361  50   0   2   0   0  0  0
  362  50   0   3   0   0  0  0
  363  50   0   2   0   0  0  0
  364  50   0   3   0   0  0  0
  365  50   0   2   0   0  0  0
  366  50   0   3   0   0  0  0
  367  50   0   2   0   0  0  0
  368  50   0   3   0   0  0  0
  369  50   0   2   0   0  0  0
  370  50   0   3   0   0  0  0
  371  50   0   2   0   0  0  0
  372  50   0   3   0   0  0  0
  373  50   0   2   0   0  0  0
  374 100   0   4  21   6  0  0
  375 111   0   0   0   0  0  0
  376 276   0   7   0   0  7  0
  377 300   0   8  22  10  0  0
  378 48900   0   0   0   0  0  0
  379  10   0   0   0   0  0  1
  380 312   8   0   0   1  0  0
  381  50   0   2   0   0  0  0
  382  50   0   3   0   0  0  0
  383  50   0   2   0   0  0  0
  384  50   0   3   0   0  0  0
  385  50   0   2   0   0  0  0
  386  50   0   3   0   0  0  0
  387  50   0   2   0   0  0  0
  388  50   0   3   0   0  0  0
  389  50   0   2   0   0  0  0
  390  50   0   3   0   0  0  0
  391  50   0   2   0   0  0  0
  392  50   0   3   0   0  0  0
  393  50   0   2   0   0  0  0
  394  50   0   3   0   0  0  0
  395  50   0   2   0   0  0  0
  396  50   0   3   0   0  0  0
  397  50   0   2   0   0  0  0
  398  50   0   3   0   0  0  0
  399  50   0   2   0   0  0  0
  400  50   0   3   0   0  0  0
  401 100   0   4  23   6  0  0
  402 111   0   0   0   0  0  0
  403 276   0   7   0   0  8  0
  404 300   0   8  24  10  0  0
  405 48900   0   0   0   0  0  0
  406  10   0   0   0   0  0  1
  407 312   8   0   0   1  0  0
  408  50   0   3   0   0  0  0
  409  50   0   2   0   0  0  0
  410  50   0   3   0   0  0  0
  411  50   0   2   0   0  0  0
  412  50   0   3   0   0  0  0
  413  50   0   2   0   0  0  0
  414  50   0   3   0   0  0  0
  415  50   0   2   0   0  0  0
  416  50   0   3   0   0  0  0
  417  50   0   2   0   0  0  0
  418  50   0   3   0   0  0  0
  419  50   0   2   0   0  0  0
  420  50   0   3   0   0  0  0
  421  50   0   2   0   0  0  0
  422  50   0   3   0   0  0  0
  423  50   0   2   0   0  0  0
  424  50   0   3   0   0  0  0
  425  50   0   2   0   0  0  0
  426  50   0   3   0   0  0  0
  427  50   0   2   0   0  0  0
  428 100   0   4  23   6  0  0
  429 111   0   0   0   0  0  0
  430 276   0   7   0   0  8  0
  431 300   0   8  24  10  0  0
  432 48900   0   0   0   0  0  0
  433  10   0   0   0   0  0  1
  434 312   9   0   0   1  0  0
  435  50   0   2   0   0  0  0
  436  50   0   3   0   0  0  0
  437  50   0   2   0   0  0  0
  438  50   0   3   0   0  0  0
  439  50   0   2   0   0  0  0
  440  50   0   3   0   0  0  0
  441  50   0   2   0   0  0  0
  442  50   0   3   0   0  0  0
  443  50   0   2   0   0  0  0
  444  50   0   3   0   0  0  0
  445  50   0   2   0   0  0  0
  446  50   0   3   0   0  0  0
  447  50   0   2   0   0  0  0
  448  50   0   3   0   0  0  0
  449  50   0   2   0   0  0  0
  450  50   0   3   0   0  0  0
  451  50   0   2   0   0  0  0
  452  50   0   3   0   0  0  0
  453  50   0   2   0   0  0  0
  454  50   0   3   0   0  0  0
  455 100   0   4  25   6  0  0
  456 111   0   0   0   0  0  0
  457 276   0   7   0   0  9  0
  458 300   0   8  26  10  0  0
  459 48900   0   0   0   0  0  0
  460  10   0   0   0   0  0  1
  461 312   9   0   0   1  0  0
  462  50   0   3   0   0  0  0
  463  50   0   2   0   0  0  0
  464  50   0   3   0   0  0  0
  465  50   0   2   0   0  0  0
  466  50   0   3   0   0  0  0
  467  50   0   2   0   0  0  0
  468  50   0   3   0   0  0  0
  469  50   0   2   0   0  0  0
  470  50   0   3   0   0  0  0
  471  50   0   2   0   0  0  0
  472  50   0   3   0   0  0  0
  473  50   0   2   0   0  0  0
  474  50   0   3   0   0  0  0
  475  50   0   2   0   0  0  0
  476  50   0   3   0   0  0  0
  477  50   0   2   0   0  0  0
  478  50   0   3   0   0  0  0
  479  50   0   2   0   0  0  0
  480  50   0   3   0   0  0  0
  481  50   0   2   0   0  0  0
  482 100   0   4  25   6  0  0
  483 111   0   0   0   0  0  0
  484 276   0   7   0   0  9  0
  485 300   0   8  26  10  0  0
  486 48900   0   0   0   0  0  0
  487  10   0   0   0   0  0  1
  488 312  10   0   0   1  0  0
  489  50   0   2   0   0  0  0
  490  50   0   3   0   0  0  0
  491  50   0   2   0   0  0  0
  492  50   0   3   0   0  0  0
  493  50   0   2   0   0  0  0
  494  50   0   3   0   0  0  0
  495  50   0   2   0   0  0  0
  496  50   0   3   0   0  0  0
  497  50   0   2   0   0  0  0
  498  50   0   3   0   0  0  0
  499  50   0   2   0   0  0  0
  500  50   0   3   0   0  0  0
  501  50   0   2   0   0  0  0
  502  50   0   3   0   0  0  0
  503  50   0   2   0   0  0  0
  504  50   0   3   0   0  0  0
  505  50   0   2   0   0  0  0
  506  50   0   3   0   0  0  0
  507  50   0   2   0   0  0  0
  508  50   0   3   0   0  0  0
  509 100   0   4  27   6  0  0
  510 111   0   0   0   0  0  0
  511 276   0   7   0   0 10  0
  512 300   0   8  28  10  0  0
  513 48900   0   0   0   0  0  0
  514  10   0   0   0   0  0  1
  515 312  10   0   0   1  0  0
  516  50   0   3   0   0  0  0
  517  50   0   2   0   0  0  0
  518  50   0   3   0   0  0  0
  519  50   0   2   0   0  0  0
  520  50   0   3   0   0  0  0
  521  50   0   2   0   0  0  0
  522  50   0   3   0   0  0  0
  523  50   0   2   0   0  0  0
  524  50   0   3   0   0  0  0
  525  50   0   2   0   0  0  0
  526  50   0   3   0   0  0  0
  527  50   0   2   0   0  0  0
  528  50   0   3   0   0  0  0
  529  50   0   2   0   0  0  0
  530  50   0   3   0   0  0  0
  531  50   0   2   0   0  0  0
  532  50   0   3   0   0  0  0
  533  50   0   2   0   0  0  0
  534  50   0   3   0   0  0  0
  535  50   0   2   0   0  0  0
  536 100   0   4  27   6  0  0
  537 111   0   0   0   0  0  0
  538 276   0   7   0   0 10  0
  539 300   0   8  28  10  0  0
  540 48900   0   0   0   0  0  0
  541  10   0   0   0   0  0  1
  542 312   6   0   0   1  0  0
  543  50   0   2   0   0  0  0
  544  50   0   3   0   0  0  0
  545  50   0   2   0   0  0  0
  546  50   0   3   0   0  0  0
  547  50   0   2   0   0  0  0
  548  50   0   3   0   0  0  0
  549  50   0   2   0   0  0  0
  550  50   0   3   0   0  0  0
  551  50   0   2   0   0  0  0
  552  50   0   3   0   0  0  0
  553  50   0   2   0   0  0  0
  554  50   0   3   0   0  0  0
  555  50   0   2   0   0  0  0
  556  50   0   3   0   0  0  0
  557  50   0   2   0   0  0  0
  558  50   0   3   0   0  0  0
  559  50   0   2   0   0  0  0
  560  50   0   3   0   0  0  0
  561  50   0   2   0   0  0  0
  562  50   0   3   0   0  0  0
  563 100   0   4  29   6  0  0
  564 111   0   0   0   0  0  0
  565 276   0   7   0   0  6  0
  566 300   0   8  30  10  0  0
  567 48900   0   0   0   0  0  0
  568  10   0   0   0   0  0  1
  569 312   6   0   0   1  0  0
  570  50   0   3   0   0  0  0
  571  50   0   2   0   0  0  0
  572  50   0   3   0   0  0  0
  573  50   0   2   0   0  0  0
  574  50   0   3   0   0  0  0
  575  50   0   2   0   0  0  0
  576  50   0   3   0   0  0  0
  577  50   0   2   0   0  0  0
  578  50   0   3   0   0  0  0
  579  50   0   2   0   0  0  0
  580  50   0   3   0   0  0  0
  581  50   0   2   0   0  0  0
  582  50   0   3   0   0  0  0
  583  50   0   2   0   0  0  0
  584  50   0   3   0   0  0  0
  585  50   0   2   0   0  0  0
  586  50   0   3   0   0  0  0
  587  50   0   2   0   0  0  0
  588  50   0   3   0   0  0  0
  589  50   0   2   0   0  0  0
  590 100   0   4  29   6  0  0
  591 111   0   0   0   0  0  0
  592 276   0   7   0   0  6  0
  593 300   0   8  30  10  0  0
  594 48900   0   0   0   0  0  0
  595  10   0   0   0   0  0  1
  596 312  11   0   0   1  0  0
  597  50   0   2   0   0  0  0
  598  50   0   3   0   0  0  0
  599  50   0   2   0   0  0  0
  600  50   0   3   0   0  0  0
  601  50   0   2   0   0  0  0
  602  50   0   3   0   0  0  0
  603  50   0   2   0   0  0  0
  604  50   0   3   0   0  0  0
  605  50   0   2   0   0  0  0
  606  50   0   3   0   0  0  0
  607  50   0   2   0   0  0  0
  608  50   0   3   0   0  0  0
  609  50   0   2   0   0  0  0
  610  50   0   3   0   0  0  0
  611  50   0   2   0   0  0  0
  612  50   0   3   0   0  0  0
  613  50   0   2   0   0  0  0
  614  50   0   3   0   0  0  0
  615  50   0   2   0   0  0  0
  616  50   0   3   0   0  0  0
  617 100   0   4  31   6  0  0
  618 111   0   0   0   0  0  0
  619 276   0   7   0   0 11  0
  620 300   0   8  32  10  0  0
  621 48900   0   0   0   0  0  0
  622  10   0   0   0   0  0  1
  623 312  11   0   0   1  0  0
  624  50   0   3   0   0  0  0
  625  50   0   2   0   0  0  0
  626  50   0   3   0   0  0  0
  627  50   0   2   0   0  0  0
  628  50   0   3   0   0  0  0
  629  50   0   2   0   0  0  0
  630  50   0   3   0   0  0  0
  631  50   0   2   0   0  0  0
  632  50   0   3   0   0  0  0
  633  50   0   2   0   0  0  0
  634  50   0   3   0   0  0  0
  635  50   0   2   0   0  0  0
  636  50   0   3   0   0  0  0
  637  50   0   2   0   0  0  0
  638  50   0   3   0   0  0  0
  639  50   0   2   0   0  0  0
  640  50   0   3   0   0  0  0
  641  50   0   2   0   0  0  0
  642  50   0   3   0   0  0  0
  643  50   0   2   0   0  0  0
  644 100   0   4  31   6  0  0
  645 111   0   0   0   0  0  0
  646 276   0   7   0   0 11  0
  647 300   0   8  32  10  0  0
  648 48900   0   0   0   0  0  0
  649  10   0   0   0   0  0  1
  650 312  12   0   0   1  0  0
  651  50   0   2   0   0  0  0
  652  50   0   3   0   0  0  0
  653  50   0   2   0   0  0  0
  654  50   0   3   0   0  0  0
  655  50   0   2   0   0  0  0
  656  50   0   3   0   0  0  0
  657  50   0   2   0   0  0  0
  658  50   0   3   0   0  0  0
  659  50   0   2   0   0  0  0
  660  50   0   3   0   0  0  0
  661  50   0   2   0   0  0  0
  662  50   0   3   0   0  0  0
  663  50   0   2   0   0  0  0
  664  50   0   3   0   0  0  0
  665  50   0   2   0   0  0  0
  666  50   0   3   0   0  0  0
  667  50   0   2   0   0  0  0
  668  50   0   3   0   0  0  0
  669  50   0   2   0   0  0  0
  670  50   0   3   0   0  0  0
  671 100   0   4  33   6  0  0
  672 111   0   0   0   0  0  0
  673 276   0   7   0   0 12  0
  674 300   0   8  34  10  0  0
  675 48900   0   0   0   0  0  0
  676  10   0   0   0   0  0  1
  677 312  12   0   0   1  0  0
  678  50   0   3   0   0  0  0
  679  50   0   2   0   0  0  0
  680  50   0   3   0   0  0  0
  681  50   0   2   0   0  0  0
  682  50   0   3   0   0  0  0
  683  50   0   2   0   0  0  0
  684  50   0   3   0   0  0  0
  685  50   0   2   0   0  0  0
  686  50   0   3   0   0  0  0
  687  50   0   2   0   0  0  0
  688  50   0   3   0   0  0  0
  689  50   0   2   0   0  0  0
  690  50   0   3   0   0  0  0
  691  50   0   2   0   0  0  0
  692  50   0   3   0   0  0  0
  693  50   0   2   0   0  0  0
  694  50   0   3   0   0  0  0
  695  50   0   2   0   0  0  0
  696  50   0   3   0   0  0  0
  697  50   0   2   0   0  0  0
  698 100   0   4  33   6  0  0
  699 111   0   0   0   0  0  0
  700 276   0   7   0   0 12  0
  701 300   0   8  34  10  0  0
  702 48900   0   0   0   0  0  0
  703  10   0   0   0   0  0  1
  704 312  13   0   0   1  0  0
  705  50   0   2   0   0  0  0
  706  50   0   3   0   0  0  0
  707  50   0   2   0   0  0  0
  708  50   0   3   0   0  0  0
  709  50   0   2   0   0  0  0
  710  50   0   3   0   0  0  0
  711  50   0   2   0   0  0  0
  712  50   0   3   0   0  0  0
  713  50   0   2   0   0  0  0
  714  50   0   3   0   0  0  0
  715  50   0   2   0   0  0  0
  716  50   0   3   0   0  0  0
  717  50   0   2   0   0  0  0
  718  50   0   3   0   0  0  0
  719  50   0   2   0   0  0  0
  720  50   0   3   0   0  0  0
  721  50   0   2   0   0  0  0
  722  50   0   3   0   0  0  0
  723  50   0   2   0   0  0  0
  724  50   0   3   0   0  0  0
  725 100   0   4  35   6  0  0
  726 111   0   0   0   0  0  0
  727 276   0   7   0   0 13  0
  728 300   0   8  36  10  0  0
  729 48900   0   0   0   0  0  0
  730  10   0   0   0   0  0  1
  731 312  13   0   0   1  0  0
  732  50   0   3   0   0  0  0
  733  50   0   2   0   0  0  0
  734  50   0   3   0   0  0  0
  735  50   0   2   0   0  0  0
  736  50   0   3   0   0  0  0
  737  50   0   2   0   0  0  0
  738  50   0   3   0   0  0  0
  739  50   0   2   0   0  0  0
  740  50   0   3   0   0  0  0
  741  50   0   2   0   0  0  0
  742  50   0   3   0   0  0  0
  743  50   0   2   0   0  0  0
  744  50   0   3   0   0  0  0
  745  50   0   2   0   0  0  0
  746  50   0   3   0   0  0  0
  747  50   0   2   0   0  0  0
  748  50   0   3   0   0  0  0
  749  50   0   2   0   0  0  0
  750  50   0   3   0   0  0  0
  751  50   0   2   0   0  0  0
  752 100   0   4  35   6  0  0
  753 111   0   0   0   0  0  0
  754 276   0   7   0   0 13  0
  755 300   0   8  36  10  0  0
  756 48900   0   0   0   0  0  0
  757  10   0   0   0   0  0  1
  758 312  14   0   0   1  0  0
  759  50   0   2   0   0  0  0
  760  50   0   3   0   0  0  0
  761  50   0   2   0   0  0  0
  762  50   0   3   0   0  0  0
  763  50   0   2   0   0  0  0
  764  50   0   3   0   0  0  0
  765  50   0   2   0   0  0  0
  766  50   0   3   0   0  0  0
  767  50   0   2   0   0  0  0
  768  50   0   3   0   0  0  0
  769  50   0   2   0   0  0  0
  770  50   0   3   0   0  0  0
  771  50   0   2   0   0  0  0
  772  50   0   3   0   0  0  0
  773  50   0   2   0   0  0  0
  774  50   0   3   0   0  0  0
  775  50   0   2   0   0  0  0
  776  50   0   3   0   0  0  0
  777  50   0   2   0   0  0  0
  778  50   0   3   0   0  0  0
  779 100   0   4  37   6  0  0
  780 111   0   0   0   0  0  0
  781 276   0   7   0   0 14  0
  782 300   0   8  38  10  0  0
  783 48900   0   0   0   0  0  0
  784  10   0   0   0   0  0  1
  785 312  14   0   0   1  0  0
  786  50   0   3   0   0  0  0
  787  50   0   2   0   0  0  0
  788  50   0   3   0   0  0  0
  789  50   0   2   0   0  0  0
  790  50   0   3   0   0  0  0
  791  50   0   2   0   0  0  0
  792  50   0   3   0   0  0  0
  793  50   0   2   0   0  0  0
  794  50   0   3   0   0  0  0
  795  50   0   2   0   0  0  0
  796  50   0   3   0   0  0  0
  797  50   0   2   0   0  0  0
  798  50   0   3   0   0  0  0
  799  50   0   2   0   0  0  0
  800  50   0   3   0   0  0  0
  801  50   0   2   0   0  0  0
  802  50   0   3   0   0  0  0
  803  50   0   2   0   0  0  0
  804  50   0   3   0   0  0  0
  805  50   0   2   0   0  0  0
  806 100   0   4  37   6  0  0
  807 111   0   0   0   0  0  0
  808 276   0   7   0   0 14  0
  809 300   0   8  38  10  0  0
  810 48900   0   0   0   0  0  0
  811  10   0   0   0   0  0  1
  812 312   1   0   0   1  0  0
  813  50   0   2   0   0  0  0
  814  50   0   3   0   0  0  0
  815  50   0   2   0   0  0  0
  816  50   0   3   0   0  0  0
  817  50   0   2   0   0  0  0
  818  50   0   3   0   0  0  0
  819  50   0   2   0   0  0  0
  820  50   0   3   0   0  0  0
  821  50   0   2   0   0  0  0
  822  50   0   3   0   0  0  0
  823  50   0   2   0   0  0  0
  824  50   0   3   0   0  0  0
  825  50   0   2   0   0  0  0
  826  50   0   3   0   0  0  0
  827  50   0   2   0   0  0  0
  828  50   0   3   0   0  0  0
  829  50   0   2   0   0  0  0
  830  50   0   3   0   0  0  0
  831  50   0   2   0   0  0  0
  832  50   0   3   0   0  0  0
  833 100   0   4  39   6  0  0
  834 111   0   0   0   0  0  0
  835 276   0   7   0   0  1  0
  836 300   0   8  40  10  0  0
  837 48900   0   0   0   0  0  0
  838  10   0   0   0   0  0  1
  839 312   1   0   0   1  0  0
  840  50   0   3   0   0  0  0
  841  50   0   2   0   0  0  0
  842  50   0   3   0   0  0  0
  843  50   0   2   0   0  0  0
  844  50   0   3   0   0  0  0
  845  50   0   2   0   0  0  0
  846  50   0   3   0   0  0  0
  847  50   0   2   0   0  0  0
  848  50   0   3   0   0  0  0
  849  50   0   2   0   0  0  0
  850  50   0   3   0   0  0  0
  851  50   0   2   0   0  0  0
  852  50   0   3   0   0  0  0
  853  50   0   2   0   0  0  0
  854  50   0   3   0   0  0  0
  855  50   0   2   0   0  0  0
  856  50   0   3   0   0  0  0
  857  50   0   2   0   0  0  0
  858  50   0   3   0   0  0  0
  859  50   0   2   0   0  0  0
  860 100   0   4  39   6  0  0
  861 111   0   0   0   0  0  0
  862 276   0   7   0   0  1  0
  863 300   0   8  40  10  0  0
  864 48900   0   0   0   0  0  0
  865  10   0   0   0   0  0  1
  866 312  15   0   0   1  0  0
  867  50   0   2   0   0  0  0
  868  50   0   3   0   0  0  0
  869  50   0   2   0   0  0  0
  870  50   0   3   0   0  0  0
  871  50   0   2   0   0  0  0
  872  50   0   3   0   0  0  0
  873  50   0   2   0   0  0  0
  874  50   0   3   0   0  0  0
  875  50   0   2   0   0  0  0
  876  50   0   3   0   0  0  0
  877  50   0   2   0   0  0  0
  878  50   0   3   0   0  0  0
  879  50   0   2   0   0  0  0
  880  50   0   3   0   0  0  0
  881  50   0   2   0   0  0  0
  882  50   0   3   0   0  0  0
  883  50   0   2   0   0  0  0
  884  50   0   3   0   0  0  0
  885  50   0   2   0   0  0  0
  886  50   0   3   0   0  0  0
  887 100   0   4  41   6  0  0
  888 111   0   0   0   0  0  0
  889 276   0   7   0   0 15  0
  890 300   0   8  42  10  0  0
  891 48900   0   0   0   0  0  0
  892  10   0   0   0   0  0  1
  893 312  15   0   0   1  0  0
  894  50   0   3   0   0  0  0
  895  50   0   2   0   0  0  0
  896  50   0   3   0   0  0  0
  897  50   0   2   0   0  0  0
  898  50   0   3   0   0  0  0
  899  50   0   2   0   0  0  0
  900  50   0   3   0   0  0  0
  901  50   0   2   0   0  0  0
  902  50   0   3   0   0  0  0
  903  50   0   2   0   0  0  0
  904  50   0   3   0   0  0  0
  905  50   0   2   0   0  0  0
  906  50   0   3   0   0  0  0
  907  50   0   2   0   0  0  0
  908  50   0   3   0   0  0  0
  909  50   0   2   0   0  0  0
  910  50   0   3   0   0  0  0
  911  50   0   2   0   0  0  0
  912  50   0   3   0   0  0  0
  913  50   0   2   0   0  0  0
  914 100   0   4  41   6  0  0
  915 111   0   0   0   0  0  0
